# TOPAS Version: 3.3.p1
# Parameter File: BaseFile.txt
# Results for scorer Dij
# Scored in component: DoseGrid
# X in 80 bins of 0.1 cm
# Y in 80 bins of 0.1 cm
# Z in 1 bin  of 0.1 cm
# DoseToMedium ( Gy ) : Mean   
0, 0, 0, 2.528106286750804e-13
0, 1, 0, 1.472149175116151e-13
0, 2, 0, 4.392011706123842e-13
0, 3, 0, 2.803401502658909e-13
0, 4, 0, 6.38403635390897e-13
0, 5, 0, 3.424896522118715e-13
0, 6, 0, 4.155792566274667e-13
0, 7, 0, 7.286354832404934e-13
0, 8, 0, 6.575981010593443e-13
0, 9, 0, 3.937800846740811e-13
0, 10, 0, 2.262991458260586e-13
0, 11, 0, 3.359587431328638e-13
0, 12, 0, 1.195655203055001e-12
0, 13, 0, 8.117810197836955e-13
0, 14, 0, 5.553801897286035e-13
0, 15, 0, 5.615577692535677e-13
0, 16, 0, 6.762361923938262e-13
0, 17, 0, 4.26480142324863e-13
0, 18, 0, 4.702600109083576e-13
0, 19, 0, 3.699383856064064e-13
0, 20, 0, 4.433786702119574e-13
0, 21, 0, 1.348337399194638e-12
0, 22, 0, 1.673549481668779e-12
0, 23, 0, 2.243906952805211e-13
0, 24, 0, 8.855034772744082e-13
0, 25, 0, 1.004894964968336e-12
0, 26, 0, 8.330884990284764e-13
0, 27, 0, 6.546803142366304e-13
0, 28, 0, 7.113922260494165e-13
0, 29, 0, 6.23056493017341e-14
0, 30, 0, 6.134018297754488e-13
0, 31, 0, 1.55686279819598e-13
0, 32, 0, 1.379335258591811e-12
0, 33, 0, 3.568240051858323e-13
0, 34, 0, 6.275619458963239e-13
0, 35, 0, 4.091774086027445e-13
0, 36, 0, 4.395106702638333e-13
0, 37, 0, 5.584775265789985e-13
0, 38, 0, 4.851275222312185e-13
0, 39, 0, 1.559440650268697e-12
0, 40, 0, 5.816093207649894e-13
0, 41, 0, 6.570541560456171e-13
0, 42, 0, 2.541148802645244e-13
0, 43, 0, 1.686114352562933e-12
0, 44, 0, 7.04539609584098e-13
0, 45, 0, 5.074003276172022e-13
0, 46, 0, 2.715991876164249e-13
0, 47, 0, 1.425061507573065e-12
0, 48, 0, 1.591443276106868e-12
0, 49, 0, 7.196710764579508e-13
0, 50, 0, 3.020436838791755e-13
0, 51, 0, 1.168844904712745e-12
0, 52, 0, 4.321004463447212e-13
0, 53, 0, 6.348457862807514e-13
0, 54, 0, 9.391934344561677e-13
0, 55, 0, 2.065086973779935e-13
0, 56, 0, 5.623136868212302e-13
0, 57, 0, 6.346073022990096e-13
0, 58, 0, 5.0785386431822e-13
0, 59, 0, 3.571720403702336e-13
0, 60, 0, 1.247777228976046e-13
0, 61, 0, 5.719270624878109e-13
0, 62, 0, 5.125555744807677e-13
0, 63, 0, 9.801291951798309e-13
0, 64, 0, 3.750705526303599e-13
0, 65, 0, 3.747873740645794e-13
0, 66, 0, 4.346583179060367e-13
0, 67, 0, 1.15760290643888e-12
0, 68, 0, 1.792820080883034e-13
0, 69, 0, 1.905055961748444e-13
0, 70, 0, 8.35318833919676e-13
0, 71, 0, 3.706703344791517e-13
0, 72, 0, 2.285413308907379e-13
0, 73, 0, 3.825110602062356e-13
0, 74, 0, 1.334079967465737e-13
0, 75, 0, 2.473834980846836e-13
0, 76, 0, 8.123472551968045e-13
0, 77, 0, 3.570257375842411e-13
0, 78, 0, 6.047447230002089e-13
0, 79, 0, 4.217624647760451e-13
1, 0, 0, 1.248402195204309e-13
1, 1, 0, 2.507731068120781e-13
1, 2, 0, 5.115337635217212e-13
1, 3, 0, 3.217927753088474e-13
1, 4, 0, 2.310914750141975e-13
1, 5, 0, 3.361926596221803e-13
1, 6, 0, 7.406101086090443e-13
1, 7, 0, 3.201857429471207e-13
1, 8, 0, 5.218938917230027e-13
1, 9, 0, 5.514295097033774e-13
1, 10, 0, 1.747057117099697e-13
1, 11, 0, 5.785422673900166e-13
1, 12, 0, 4.948032148344016e-13
1, 13, 0, 6.9135349332956e-13
1, 14, 0, 1.247480867197219e-12
1, 15, 0, 6.159038913021439e-13
1, 16, 0, 7.87014067727215e-14
1, 17, 0, 3.360481739447031e-13
1, 18, 0, 4.687063188402628e-13
1, 19, 0, 9.598028690720472e-13
1, 20, 0, 6.129604532148244e-13
1, 21, 0, 6.264671470391816e-13
1, 22, 0, 6.877734160429416e-13
1, 23, 0, 5.43819705401056e-13
1, 24, 0, 1.505238424681023e-12
1, 25, 0, 9.230754634224186e-13
1, 26, 0, 6.779289001706098e-13
1, 27, 0, 9.480788115031392e-13
1, 28, 0, 1.119665729529151e-13
1, 29, 0, 6.616281915182581e-13
1, 30, 0, 3.040562406211042e-13
1, 31, 0, 7.548568272122651e-13
1, 32, 0, 7.120700385275791e-13
1, 33, 0, 8.737709668717409e-13
1, 34, 0, 7.425099199857196e-13
1, 35, 0, 5.999494920415658e-13
1, 36, 0, 5.220801471179617e-13
1, 37, 0, 8.676653321572226e-13
1, 38, 0, 7.481716520922941e-13
1, 39, 0, 1.271370837253362e-12
1, 40, 0, 1.458731242452057e-12
1, 41, 0, 6.418451532353123e-13
1, 42, 0, 6.360660975577428e-13
1, 43, 0, 8.767311436606142e-13
1, 44, 0, 1.889691134485913e-12
1, 45, 0, 1.116410734944971e-12
1, 46, 0, 3.773983107019213e-13
1, 47, 0, 1.147656233763766e-12
1, 48, 0, 1.267804221436002e-12
1, 49, 0, 7.357881223358836e-13
1, 50, 0, 5.677859678985523e-13
1, 51, 0, 4.232261029640071e-13
1, 52, 0, 6.69229890937979e-13
1, 53, 0, 4.787874209947561e-13
1, 54, 0, 5.095058893435434e-13
1, 55, 0, 5.946417608858086e-13
1, 56, 0, 4.88989632095393e-13
1, 57, 0, 9.647275494931035e-13
1, 58, 0, 9.83950253809299e-13
1, 59, 0, 8.596791110682315e-13
1, 60, 0, 8.067252062383883e-13
1, 61, 0, 3.320551063164619e-13
1, 62, 0, 4.946902463692616e-13
1, 63, 0, 5.890337849257571e-13
1, 64, 0, 6.900882205117403e-13
1, 65, 0, 2.307134388645337e-13
1, 66, 0, 6.805919053172064e-13
1, 67, 0, 7.817348900946461e-13
1, 68, 0, 8.279212270087123e-13
1, 69, 0, 4.215024832280989e-14
1, 70, 0, 7.064681439930473e-13
1, 71, 0, 5.138617144114454e-13
1, 72, 0, 8.489222313753055e-13
1, 73, 0, 7.910264421754034e-13
1, 74, 0, 2.648125142954839e-13
1, 75, 0, 4.519782825684956e-13
1, 76, 0, 7.117149276672568e-13
1, 77, 0, 4.092935450129557e-13
1, 78, 0, 1.043902799408034e-13
1, 79, 0, 5.350199168394958e-13
2, 0, 0, 5.060973612860592e-13
2, 1, 0, 7.918089742676317e-13
2, 2, 0, 6.795195441118353e-13
2, 3, 0, 5.241231761333214e-13
2, 4, 0, 3.638624911766134e-13
2, 5, 0, 2.883935298237437e-13
2, 6, 0, 1.363178393756094e-13
2, 7, 0, 3.869716836519024e-13
2, 8, 0, 5.432042731828733e-13
2, 9, 0, 4.960790855574718e-13
2, 10, 0, 4.563793415194106e-13
2, 11, 0, 7.099249262344554e-13
2, 12, 0, 2.485442473511082e-13
2, 13, 0, 7.129054397893194e-13
2, 14, 0, 1.280175619956089e-12
2, 15, 0, 5.836344096935891e-13
2, 16, 0, 4.395641403618724e-13
2, 17, 0, 4.536008542677941e-13
2, 18, 0, 6.520067256240652e-13
2, 19, 0, 1.375478472414168e-12
2, 20, 0, 6.416017177009278e-13
2, 21, 0, 7.094249491791888e-13
2, 22, 0, 5.209736365997252e-13
2, 23, 0, 1.197004810920892e-12
2, 24, 0, 6.112813837305708e-13
2, 25, 0, 9.382571512450555e-13
2, 26, 0, 5.072116215778357e-13
2, 27, 0, 6.381463904509311e-13
2, 28, 0, 6.51565546183509e-13
2, 29, 0, 1.022398563551308e-12
2, 30, 0, 2.11728175412782e-13
2, 31, 0, 1.055116459333096e-12
2, 32, 0, 9.355165632952282e-13
2, 33, 0, 7.023685877879386e-13
2, 34, 0, 8.541037412208045e-13
2, 35, 0, 9.304560028364011e-13
2, 36, 0, 6.551232389938508e-13
2, 37, 0, 8.005367135524812e-13
2, 38, 0, 9.627299087164204e-13
2, 39, 0, 8.302917270343428e-13
2, 40, 0, 1.034870169180505e-12
2, 41, 0, 3.972367278706035e-13
2, 42, 0, 8.708811130269087e-13
2, 43, 0, 1.799548051043486e-12
2, 44, 0, 2.943932754610126e-13
2, 45, 0, 4.631529909418863e-13
2, 46, 0, 5.620714399261976e-13
2, 47, 0, 4.537251246503636e-13
2, 48, 0, 5.633708393629645e-13
2, 49, 0, 8.912018864310354e-13
2, 50, 0, 3.973211465246924e-13
2, 51, 0, 7.905272412418736e-13
2, 52, 0, 8.071982857541872e-13
2, 53, 0, 7.860755880826269e-13
2, 54, 0, 2.886734592286138e-13
2, 55, 0, 8.459347712040839e-13
2, 56, 0, 5.02379658535519e-13
2, 57, 0, 9.412966398443802e-13
2, 58, 0, 4.897517316659554e-13
2, 59, 0, 6.953418985059392e-13
2, 60, 0, 3.505716210961106e-13
2, 61, 0, 3.932063568739739e-13
2, 62, 0, 4.476369530911463e-13
2, 63, 0, 7.445771221915538e-13
2, 64, 0, 1.120963868160031e-12
2, 65, 0, 5.258617224341525e-13
2, 66, 0, 1.316367215337907e-12
2, 67, 0, 3.790328467170124e-13
2, 68, 0, 4.833460586573482e-13
2, 69, 0, 1.540732342656567e-13
2, 70, 0, 1.114070405268796e-13
2, 71, 0, 9.571533251035689e-13
2, 72, 0, 4.657008794798215e-13
2, 73, 0, 2.11877919665546e-13
2, 74, 0, 7.460435192250673e-13
2, 75, 0, 2.482178261120237e-13
2, 76, 0, 6.995047576364695e-13
2, 77, 0, 4.16348165684529e-13
2, 78, 0, 8.528627074642723e-13
2, 79, 0, 7.718574516690043e-13
3, 0, 0, 3.884503532246367e-13
3, 1, 0, 2.856594414260016e-13
3, 2, 0, 4.634214002409552e-13
3, 3, 0, 3.957200431123005e-13
3, 4, 0, 8.92188109668519e-14
3, 5, 0, 8.058347358225874e-13
3, 6, 0, 6.103767509719499e-13
3, 7, 0, 6.758080193365218e-13
3, 8, 0, 8.643334295078905e-13
3, 9, 0, 1.057974351419732e-12
3, 10, 0, 1.299423370612252e-12
3, 11, 0, 4.555694426683323e-13
3, 12, 0, 2.809476084092813e-13
3, 13, 0, 4.871022708168941e-13
3, 14, 0, 6.192585879618961e-13
3, 15, 0, 1.481961579150375e-12
3, 16, 0, 7.937110659352791e-13
3, 17, 0, 4.710598079120475e-13
3, 18, 0, 8.585401590436854e-13
3, 19, 0, 6.277165486234991e-13
3, 20, 0, 1.464640906253206e-12
3, 21, 0, 5.722588247490187e-13
3, 22, 0, 9.634993281233777e-13
3, 23, 0, 8.475499886395575e-13
3, 24, 0, 3.175572911641496e-13
3, 25, 0, 4.478636579668641e-13
3, 26, 0, 1.566552087924116e-12
3, 27, 0, 6.493542227662889e-13
3, 28, 0, 5.784358768512193e-13
3, 29, 0, 4.272229262509579e-13
3, 30, 0, 1.973983773658979e-13
3, 31, 0, 8.586136448271681e-13
3, 32, 0, 6.830681626573688e-13
3, 33, 0, 9.328027736857556e-13
3, 34, 0, 7.514368520575913e-13
3, 35, 0, 1.506961841946501e-12
3, 36, 0, 7.643253137059146e-13
3, 37, 0, 8.811307231045544e-13
3, 38, 0, 1.035367361467694e-12
3, 39, 0, 7.553139712039517e-13
3, 40, 0, 1.044380312940807e-12
3, 41, 0, 1.102272852944772e-12
3, 42, 0, 1.174694607440751e-12
3, 43, 0, 5.054718506689754e-13
3, 44, 0, 5.917283593936462e-13
3, 45, 0, 6.5867429439067e-13
3, 46, 0, 4.558717377886811e-13
3, 47, 0, 1.163297680670078e-12
3, 48, 0, 1.477272701940137e-12
3, 49, 0, 4.804197374729416e-13
3, 50, 0, 2.300185680641909e-13
3, 51, 0, 3.303475870554292e-13
3, 52, 0, 1.436049810060864e-12
3, 53, 0, 8.200890140721616e-13
3, 54, 0, 6.464406808080855e-13
3, 55, 0, 2.629153178550526e-13
3, 56, 0, 7.900864060308797e-13
3, 57, 0, 4.324517777955949e-13
3, 58, 0, 5.39349965967802e-13
3, 59, 0, 7.876667731073512e-13
3, 60, 0, 8.184513723185642e-13
3, 61, 0, 9.750761184150374e-13
3, 62, 0, 5.991893215470844e-13
3, 63, 0, 1.632276821130716e-12
3, 64, 0, 8.592659960837053e-13
3, 65, 0, 8.4285874329524e-13
3, 66, 0, 8.483269314442125e-13
3, 67, 0, 1.144723809602913e-12
3, 68, 0, 6.635298517113413e-13
3, 69, 0, 6.848212026847053e-13
3, 70, 0, 3.686197752379885e-13
3, 71, 0, 1.080265760303307e-12
3, 72, 0, 7.003649219833618e-13
3, 73, 0, 3.973570104863714e-13
3, 74, 0, 6.018914584985662e-13
3, 75, 0, 8.458685650866661e-13
3, 76, 0, 2.066114768320625e-13
3, 77, 0, 3.377159261557013e-14
3, 78, 0, 8.14869453162702e-13
3, 79, 0, 3.977610681918505e-13
4, 0, 0, 6.376727567977682e-13
4, 1, 0, 3.243579040776874e-13
4, 2, 0, 7.507860631851556e-13
4, 3, 0, 9.251828573797534e-13
4, 4, 0, 2.133867945173409e-13
4, 5, 0, 9.139219320442335e-14
4, 6, 0, 4.668508372307605e-13
4, 7, 0, 5.270974695889983e-13
4, 8, 0, 4.64655281510268e-13
4, 9, 0, 5.099848693587382e-13
4, 10, 0, 1.06026040672067e-13
4, 11, 0, 7.429276432220494e-13
4, 12, 0, 4.472505097744825e-13
4, 13, 0, 6.41809559834806e-13
4, 14, 0, 5.723703409104053e-13
4, 15, 0, 1.103564890157748e-12
4, 16, 0, 7.613777145314713e-13
4, 17, 0, 1.072911691586062e-12
4, 18, 0, 1.147485355382139e-12
4, 19, 0, 9.961028225269103e-13
4, 20, 0, 7.660862380160324e-13
4, 21, 0, 6.009905676155055e-13
4, 22, 0, 4.41256795586746e-13
4, 23, 0, 9.96830661712369e-13
4, 24, 0, 6.617519018404064e-13
4, 25, 0, 1.03812913523916e-12
4, 26, 0, 8.066308454907806e-13
4, 27, 0, 1.268196306051926e-12
4, 28, 0, 5.073433644526784e-13
4, 29, 0, 1.356036007802391e-12
4, 30, 0, 5.816615439785889e-13
4, 31, 0, 7.282482283459715e-13
4, 32, 0, 7.048729675291672e-13
4, 33, 0, 1.05220495205238e-12
4, 34, 0, 1.184332625204434e-12
4, 35, 0, 8.018181464004208e-13
4, 36, 0, 1.454049015979399e-12
4, 37, 0, 8.246095420343466e-13
4, 38, 0, 5.84524551991894e-13
4, 39, 0, 5.300380535796642e-13
4, 40, 0, 4.831814766578332e-13
4, 41, 0, 1.954788637855629e-12
4, 42, 0, 1.081354004865546e-12
4, 43, 0, 1.090383175749751e-12
4, 44, 0, 9.5471471779699e-13
4, 45, 0, 1.119717345251411e-12
4, 46, 0, 4.314379820231117e-13
4, 47, 0, 1.102254795446926e-12
4, 48, 0, 1.295317219120089e-12
4, 49, 0, 8.839010515309232e-13
4, 50, 0, 1.236832186777342e-12
4, 51, 0, 1.50790139715409e-12
4, 52, 0, 6.677554854147424e-13
4, 53, 0, 1.489418804826622e-12
4, 54, 0, 6.844448178937993e-13
4, 55, 0, 6.970043778049035e-13
4, 56, 0, 6.737984644173181e-13
4, 57, 0, 4.567103814186091e-13
4, 58, 0, 6.874029144816319e-13
4, 59, 0, 3.274004313722653e-13
4, 60, 0, 6.594114459123732e-13
4, 61, 0, 7.632635222028921e-13
4, 62, 0, 5.528394533159568e-13
4, 63, 0, 5.865686225595692e-13
4, 64, 0, 4.516375549085746e-13
4, 65, 0, 5.641502429593589e-13
4, 66, 0, 3.173095228655984e-13
4, 67, 0, 5.794083980641749e-13
4, 68, 0, 5.700318392990481e-13
4, 69, 0, 3.144665493280811e-13
4, 70, 0, 2.203239215764048e-13
4, 71, 0, 9.755833899081697e-13
4, 72, 0, 7.60138713269817e-13
4, 73, 0, 3.18367111155304e-13
4, 74, 0, 3.501829111821315e-13
4, 75, 0, 7.340804345910479e-13
4, 76, 0, 5.072269114591927e-13
4, 77, 0, 3.538015431699045e-13
4, 78, 0, 3.401139790282287e-13
4, 79, 0, 3.092427972020555e-13
5, 0, 0, 6.369239751657273e-13
5, 1, 0, 8.106635392329682e-13
5, 2, 0, 3.79771320498925e-13
5, 3, 0, 4.073535076135075e-13
5, 4, 0, 7.186162580646855e-13
5, 5, 0, 3.060368184193272e-13
5, 6, 0, 3.238762580129241e-13
5, 7, 0, 3.478700265205881e-13
5, 8, 0, 6.542910772215326e-13
5, 9, 0, 1.825080784012672e-13
5, 10, 0, 6.208954312498429e-13
5, 11, 0, 2.213218468370115e-13
5, 12, 0, 6.257559388715049e-13
5, 13, 0, 2.503250707460198e-13
5, 14, 0, 2.676392380205663e-13
5, 15, 0, 1.01766561900649e-12
5, 16, 0, 7.488684846982615e-13
5, 17, 0, 5.933975394434531e-13
5, 18, 0, 5.63974962797287e-13
5, 19, 0, 6.266788650986986e-13
5, 20, 0, 1.15943576506556e-12
5, 21, 0, 1.346591879842408e-12
5, 22, 0, 5.147832747236139e-13
5, 23, 0, 9.52071818119253e-13
5, 24, 0, 1.222693033470149e-12
5, 25, 0, 5.661392434913748e-13
5, 26, 0, 1.815742709696079e-12
5, 27, 0, 6.064408396520867e-13
5, 28, 0, 3.701088861989699e-13
5, 29, 0, 1.892851045149714e-12
5, 30, 0, 8.445468827910045e-13
5, 31, 0, 5.211536577369263e-13
5, 32, 0, 6.704609502961048e-13
5, 33, 0, 9.967213809632781e-13
5, 34, 0, 1.368769893711692e-12
5, 35, 0, 9.630704382992595e-13
5, 36, 0, 1.139848527510474e-12
5, 37, 0, 1.406032963581358e-12
5, 38, 0, 8.887578450167608e-13
5, 39, 0, 1.380135933313259e-12
5, 40, 0, 9.255140437782989e-13
5, 41, 0, 1.192069608927601e-12
5, 42, 0, 3.677968478617231e-13
5, 43, 0, 5.228609112980994e-13
5, 44, 0, 5.990169459097811e-13
5, 45, 0, 6.57730070825193e-13
5, 46, 0, 1.263157150588665e-12
5, 47, 0, 8.876820097975744e-13
5, 48, 0, 1.438041270327453e-12
5, 49, 0, 1.093252289598333e-12
5, 50, 0, 4.180841037890977e-13
5, 51, 0, 1.234122466558266e-12
5, 52, 0, 6.011968833127787e-13
5, 53, 0, 1.189511012159675e-12
5, 54, 0, 7.940502854521731e-13
5, 55, 0, 1.097163672956559e-12
5, 56, 0, 8.542667223075249e-13
5, 57, 0, 9.760744384826236e-13
5, 58, 0, 1.068477552944176e-12
5, 59, 0, 4.085017046973941e-13
5, 60, 0, 1.070177995640138e-12
5, 61, 0, 6.904000955463878e-13
5, 62, 0, 6.189444589912057e-13
5, 63, 0, 8.507897904013116e-13
5, 64, 0, 3.651762512495518e-13
5, 65, 0, 5.595139280450724e-13
5, 66, 0, 9.993882667204874e-13
5, 67, 0, 9.046684125988705e-13
5, 68, 0, 5.491226625030649e-13
5, 69, 0, 1.114487609910035e-12
5, 70, 0, 1.127209692009196e-12
5, 71, 0, 1.029795913216099e-12
5, 72, 0, 9.342823767914388e-13
5, 73, 0, 1.478992866965567e-12
5, 74, 0, 2.052526509932383e-13
5, 75, 0, 1.039253929897761e-12
5, 76, 0, 6.67254637482587e-13
5, 77, 0, 1.257002555783428e-13
5, 78, 0, 3.288350414665121e-13
5, 79, 0, 6.196924532646391e-13
6, 0, 0, 1.410559573091412e-12
6, 1, 0, 5.595649920288334e-13
6, 2, 0, 3.09350330377031e-13
6, 3, 0, 3.414959005253673e-13
6, 4, 0, 3.749829986688924e-13
6, 5, 0, 4.857182333994242e-13
6, 6, 0, 2.732953037815069e-13
6, 7, 0, 4.022251159904308e-13
6, 8, 0, 2.527624161407778e-13
6, 9, 0, 4.373704480358841e-13
6, 10, 0, 9.452215851747232e-13
6, 11, 0, 3.26784852595939e-13
6, 12, 0, 4.24995064331468e-13
6, 13, 0, 6.288171738323525e-13
6, 14, 0, 8.962338912244383e-13
6, 15, 0, 4.840089720738224e-13
6, 16, 0, 1.263879820005435e-12
6, 17, 0, 1.084268076936674e-12
6, 18, 0, 1.489393775671388e-12
6, 19, 0, 6.453137360949223e-13
6, 20, 0, 1.173592031106665e-12
6, 21, 0, 4.88506024460603e-13
6, 22, 0, 9.055240180078386e-13
6, 23, 0, 2.91692614823267e-13
6, 24, 0, 8.747306594156369e-13
6, 25, 0, 1.165840731885176e-12
6, 26, 0, 9.191891169447814e-13
6, 27, 0, 6.387252918336075e-13
6, 28, 0, 9.566605019735542e-13
6, 29, 0, 7.510631718330425e-13
6, 30, 0, 1.081242767132532e-12
6, 31, 0, 1.460930551851367e-12
6, 32, 0, 9.13754454439796e-13
6, 33, 0, 9.714258919627441e-13
6, 34, 0, 1.522886516793658e-12
6, 35, 0, 1.082632492659062e-12
6, 36, 0, 1.280225134852808e-12
6, 37, 0, 1.397499846802643e-12
6, 38, 0, 1.463585914244697e-12
6, 39, 0, 1.568671738442787e-12
6, 40, 0, 6.77417723638802e-13
6, 41, 0, 1.33289685165e-12
6, 42, 0, 5.625328629887841e-13
6, 43, 0, 8.900198198614939e-13
6, 44, 0, 4.140287271900481e-13
6, 45, 0, 7.146160315430733e-13
6, 46, 0, 9.529021533853778e-13
6, 47, 0, 1.030487438067979e-12
6, 48, 0, 1.40368473704215e-12
6, 49, 0, 1.478252965243328e-12
6, 50, 0, 4.415176672826651e-13
6, 51, 0, 8.211684659242539e-13
6, 52, 0, 9.956668517765868e-13
6, 53, 0, 8.965009958258478e-13
6, 54, 0, 7.468071845436629e-13
6, 55, 0, 7.125297675204585e-13
6, 56, 0, 5.453449263586182e-13
6, 57, 0, 1.327262215871301e-12
6, 58, 0, 5.493072884816914e-13
6, 59, 0, 9.595884481650665e-13
6, 60, 0, 3.272552538079137e-13
6, 61, 0, 9.19902645112522e-13
6, 62, 0, 3.637047423848941e-13
6, 63, 0, 9.19503958139798e-13
6, 64, 0, 1.159816027089727e-12
6, 65, 0, 9.076537899326176e-13
6, 66, 0, 6.120334198263038e-13
6, 67, 0, 5.251287974056191e-13
6, 68, 0, 6.370691316924331e-13
6, 69, 0, 5.194078176361303e-13
6, 70, 0, 6.124179888500518e-13
6, 71, 0, 4.676060855222336e-13
6, 72, 0, 7.34236199901936e-13
6, 73, 0, 2.634839580874755e-13
6, 74, 0, 1.202424845987612e-12
6, 75, 0, 7.835969658099381e-13
6, 76, 0, 9.554324467894133e-13
6, 77, 0, 2.905802420368114e-13
6, 78, 0, 4.905518048671316e-13
6, 79, 0, 3.898602544547601e-13
7, 0, 0, 8.753097030366287e-13
7, 1, 0, 2.189655236031172e-13
7, 2, 0, 5.221148662747464e-13
7, 3, 0, 1.049760237414422e-12
7, 4, 0, 7.133561602249669e-13
7, 5, 0, 1.123945327933215e-12
7, 6, 0, 5.714686536030458e-13
7, 7, 0, 1.646917592348416e-13
7, 8, 0, 3.949826058215679e-13
7, 9, 0, 4.838514581841972e-13
7, 10, 0, 9.776451978664876e-13
7, 11, 0, 4.549708657399163e-13
7, 12, 0, 3.629554002203726e-13
7, 13, 0, 1.502512169119617e-12
7, 14, 0, 1.018677950852715e-12
7, 15, 0, 7.30081225422456e-13
7, 16, 0, 9.835692890393211e-13
7, 17, 0, 1.591048506197215e-12
7, 18, 0, 1.907066709079346e-12
7, 19, 0, 7.44768647767473e-13
7, 20, 0, 3.59658457580678e-13
7, 21, 0, 1.979430914827997e-13
7, 22, 0, 9.748702440422314e-13
7, 23, 0, 1.34676151682054e-12
7, 24, 0, 9.99385260109268e-13
7, 25, 0, 5.535040822668523e-13
7, 26, 0, 9.429019031586098e-13
7, 27, 0, 1.263050076916088e-12
7, 28, 0, 6.828400981253796e-13
7, 29, 0, 1.078877968041792e-12
7, 30, 0, 1.220476848364903e-12
7, 31, 0, 8.056730104495113e-13
7, 32, 0, 1.011369169497752e-12
7, 33, 0, 1.309653710307057e-12
7, 34, 0, 5.818096834554515e-13
7, 35, 0, 5.211776847994528e-13
7, 36, 0, 1.322453235645385e-12
7, 37, 0, 4.902746969029006e-13
7, 38, 0, 9.058055565148264e-13
7, 39, 0, 1.317765912172211e-12
7, 40, 0, 9.591951719692917e-13
7, 41, 0, 1.130040155593913e-12
7, 42, 0, 5.52267035462443e-13
7, 43, 0, 1.334995114520318e-12
7, 44, 0, 1.009707302227628e-12
7, 45, 0, 8.688235605196809e-13
7, 46, 0, 7.375076945283999e-13
7, 47, 0, 1.119585641667166e-12
7, 48, 0, 9.826538629920211e-13
7, 49, 0, 8.793973257914886e-13
7, 50, 0, 1.053243020045988e-12
7, 51, 0, 8.828369814147867e-13
7, 52, 0, 1.042494372985536e-12
7, 53, 0, 7.249444235960809e-13
7, 54, 0, 5.576807034191594e-13
7, 55, 0, 1.229650862848939e-12
7, 56, 0, 6.714222496296167e-13
7, 57, 0, 6.648092059380987e-13
7, 58, 0, 8.733327773788782e-13
7, 59, 0, 8.925440900274087e-13
7, 60, 0, 1.240992904192402e-12
7, 61, 0, 7.51938493169834e-13
7, 62, 0, 1.344265882949647e-12
7, 63, 0, 8.803736991709499e-13
7, 64, 0, 1.133655188657999e-12
7, 65, 0, 7.576400882128788e-13
7, 66, 0, 1.344956865211109e-12
7, 67, 0, 7.802078452202483e-13
7, 68, 0, 4.452656356372152e-13
7, 69, 0, 2.097032224264707e-13
7, 70, 0, 7.020209020208311e-13
7, 71, 0, 6.828717340078379e-13
7, 72, 0, 3.087573512202769e-13
7, 73, 0, 9.052417117532771e-13
7, 74, 0, 4.933069127169122e-13
7, 75, 0, 9.612139987973856e-13
7, 76, 0, 1.132916611154664e-12
7, 77, 0, 4.71316363103011e-13
7, 78, 0, 2.303583766971604e-13
7, 79, 0, 8.890386957711964e-14
8, 0, 0, 5.582825395499157e-13
8, 1, 0, 3.947893029762468e-13
8, 2, 0, 4.229946708942663e-13
8, 3, 0, 5.971806239316095e-13
8, 4, 0, 4.358655017415577e-13
8, 5, 0, 7.64281872775096e-13
8, 6, 0, 6.536801885440845e-13
8, 7, 0, 6.568765756869149e-13
8, 8, 0, 5.91394825959447e-13
8, 9, 0, 5.514301912421743e-13
8, 10, 0, 6.187554849766589e-13
8, 11, 0, 6.255644487115747e-13
8, 12, 0, 9.149828373628001e-13
8, 13, 0, 4.713722750384298e-13
8, 14, 0, 1.262352869924157e-12
8, 15, 0, 4.931945611949464e-13
8, 16, 0, 4.548054912002504e-13
8, 17, 0, 1.184260520537269e-12
8, 18, 0, 9.113875661136201e-13
8, 19, 0, 8.26078388344951e-13
8, 20, 0, 5.886378099740795e-13
8, 21, 0, 1.502555620534491e-12
8, 22, 0, 9.374275622184577e-13
8, 23, 0, 4.728652495161418e-13
8, 24, 0, 5.459098562219968e-13
8, 25, 0, 4.780010977565091e-13
8, 26, 0, 6.159665222092922e-13
8, 27, 0, 1.154011495755342e-12
8, 28, 0, 6.223550480114333e-13
8, 29, 0, 1.031626228094148e-12
8, 30, 0, 1.390827234635093e-12
8, 31, 0, 6.833025800535199e-13
8, 32, 0, 7.867623475081259e-13
8, 33, 0, 7.04045300176489e-13
8, 34, 0, 1.166664061113174e-12
8, 35, 0, 1.281457575827794e-12
8, 36, 0, 1.667116934435203e-12
8, 37, 0, 4.461596307597934e-13
8, 38, 0, 8.214837849920691e-13
8, 39, 0, 1.184003319345413e-12
8, 40, 0, 1.126614089774906e-12
8, 41, 0, 8.767782735639429e-13
8, 42, 0, 9.446165803065633e-13
8, 43, 0, 1.536382440730414e-12
8, 44, 0, 1.353363560971628e-12
8, 45, 0, 7.682706994260293e-13
8, 46, 0, 1.244636014326806e-12
8, 47, 0, 1.136026201262596e-12
8, 48, 0, 4.857530824442885e-13
8, 49, 0, 6.641677307218783e-13
8, 50, 0, 4.738105791251028e-13
8, 51, 0, 1.096074293578395e-12
8, 52, 0, 6.073221019886638e-13
8, 53, 0, 8.90145293357094e-13
8, 54, 0, 1.262120288905776e-12
8, 55, 0, 1.438950716338138e-12
8, 56, 0, 5.348188214647924e-13
8, 57, 0, 8.15505302831106e-13
8, 58, 0, 1.4268729878165e-12
8, 59, 0, 4.156755496841438e-13
8, 60, 0, 9.132929004768891e-13
8, 61, 0, 1.974137623881487e-13
8, 62, 0, 1.029208937950967e-12
8, 63, 0, 8.619305558071251e-13
8, 64, 0, 8.195629724953099e-13
8, 65, 0, 9.015200626249405e-13
8, 66, 0, 9.160754404911754e-13
8, 67, 0, 8.746389365737103e-13
8, 68, 0, 2.964110136284266e-13
8, 69, 0, 9.592026616701203e-13
8, 70, 0, 7.710257334336531e-13
8, 71, 0, 3.961411350667264e-13
8, 72, 0, 1.02703097466088e-12
8, 73, 0, 7.176683597580899e-13
8, 74, 0, 8.40765370910152e-13
8, 75, 0, 7.388057003751092e-13
8, 76, 0, 5.104540697381185e-13
8, 77, 0, 7.622481675580553e-13
8, 78, 0, 6.857235893910574e-13
8, 79, 0, 2.105417166289294e-13
9, 0, 0, 4.452522825799361e-13
9, 1, 0, 7.213518009683946e-13
9, 2, 0, 9.265740552369649e-13
9, 3, 0, 5.704622898181796e-13
9, 4, 0, 6.917561925795052e-13
9, 5, 0, 1.37267124373808e-12
9, 6, 0, 1.046348173268062e-12
9, 7, 0, 7.264705530325154e-13
9, 8, 0, 6.383008269900288e-13
9, 9, 0, 6.510618139698319e-13
9, 10, 0, 3.000807708688606e-13
9, 11, 0, 6.235731626180693e-13
9, 12, 0, 6.530469837721343e-13
9, 13, 0, 9.834043941204442e-13
9, 14, 0, 8.267054041217179e-13
9, 15, 0, 1.472482111413017e-12
9, 16, 0, 4.585635937195535e-13
9, 17, 0, 1.170738256729161e-12
9, 18, 0, 7.293561684156695e-13
9, 19, 0, 8.170033069227034e-13
9, 20, 0, 3.085841368117898e-13
9, 21, 0, 8.97191674606008e-13
9, 22, 0, 8.588919357178072e-13
9, 23, 0, 1.109588521625673e-12
9, 24, 0, 1.410859005293505e-12
9, 25, 0, 1.013926144250828e-12
9, 26, 0, 8.20641945195013e-13
9, 27, 0, 7.33012502707306e-13
9, 28, 0, 1.154921940577576e-12
9, 29, 0, 8.960001936994881e-13
9, 30, 0, 7.544849722039824e-13
9, 31, 0, 1.106190476189492e-12
9, 32, 0, 5.625375611495963e-13
9, 33, 0, 4.699841987030912e-13
9, 34, 0, 5.343095244131411e-13
9, 35, 0, 1.457742745316306e-12
9, 36, 0, 1.399801639086108e-12
9, 37, 0, 1.245806929591172e-12
9, 38, 0, 1.498073440035874e-12
9, 39, 0, 1.051567414883785e-12
9, 40, 0, 7.36447572468713e-13
9, 41, 0, 9.000061211430566e-13
9, 42, 0, 1.585751878203417e-12
9, 43, 0, 1.886147717173888e-12
9, 44, 0, 1.807935942374829e-12
9, 45, 0, 1.166089752178219e-12
9, 46, 0, 1.122493862822976e-12
9, 47, 0, 1.732934956734001e-12
9, 48, 0, 5.492830445570424e-13
9, 49, 0, 9.975600313004575e-13
9, 50, 0, 1.154575168787978e-12
9, 51, 0, 1.01449553863654e-12
9, 52, 0, 1.319339423023954e-12
9, 53, 0, 6.255520219376671e-13
9, 54, 0, 5.473482157755045e-13
9, 55, 0, 6.322181227533591e-13
9, 56, 0, 1.160527264125247e-12
9, 57, 0, 1.330761386178956e-12
9, 58, 0, 1.015739889980884e-12
9, 59, 0, 2.812906176759707e-13
9, 60, 0, 4.718645835331689e-13
9, 61, 0, 1.166373014494745e-12
9, 62, 0, 1.261515555123029e-12
9, 63, 0, 5.899023210452711e-13
9, 64, 0, 1.496131093149878e-12
9, 65, 0, 4.491290044344889e-13
9, 66, 0, 6.482379545308763e-13
9, 67, 0, 4.373302172655622e-13
9, 68, 0, 4.464782809202437e-13
9, 69, 0, 5.620595345875683e-13
9, 70, 0, 5.919743512254636e-13
9, 71, 0, 3.263413281835378e-13
9, 72, 0, 2.549472571003664e-13
9, 73, 0, 7.933775538098079e-13
9, 74, 0, 1.156896235805845e-12
9, 75, 0, 6.975283767589929e-13
9, 76, 0, 4.658801995936536e-13
9, 77, 0, 3.480901907403174e-13
9, 78, 0, 4.731019850188988e-13
9, 79, 0, 2.606780783140003e-13
10, 0, 0, 7.630941298926089e-13
10, 1, 0, 1.366873434796242e-12
10, 2, 0, 9.482900526030768e-13
10, 3, 0, 4.001670291704192e-13
10, 4, 0, 2.60300776915161e-13
10, 5, 0, 9.971348767223257e-13
10, 6, 0, 7.009215201672548e-13
10, 7, 0, 1.362119777219503e-12
10, 8, 0, 6.891451782191318e-13
10, 9, 0, 9.120404015742722e-13
10, 10, 0, 7.101775317208969e-13
10, 11, 0, 5.523769013867627e-13
10, 12, 0, 5.515410975263245e-13
10, 13, 0, 5.653434043404297e-13
10, 14, 0, 4.683093008053036e-13
10, 15, 0, 1.453811971373361e-12
10, 16, 0, 1.06232568581947e-12
10, 17, 0, 9.118865116114712e-13
10, 18, 0, 4.575375621936702e-13
10, 19, 0, 1.161797763265122e-12
10, 20, 0, 4.243296163436517e-13
10, 21, 0, 1.187491013331851e-12
10, 22, 0, 1.681551590962269e-12
10, 23, 0, 1.455985203049692e-12
10, 24, 0, 1.330954185191967e-12
10, 25, 0, 2.012070755310445e-12
10, 26, 0, 1.021799411044661e-12
10, 27, 0, 1.547588982184246e-12
10, 28, 0, 1.469607437312237e-12
10, 29, 0, 1.858872124497747e-12
10, 30, 0, 1.186976313312205e-12
10, 31, 0, 1.090256462514811e-12
10, 32, 0, 1.607843625244333e-12
10, 33, 0, 7.816030182577881e-13
10, 34, 0, 1.629928789575103e-12
10, 35, 0, 1.290827629890133e-12
10, 36, 0, 1.344821379440111e-12
10, 37, 0, 1.546218978198202e-12
10, 38, 0, 1.501264457983971e-12
10, 39, 0, 1.375621062108494e-12
10, 40, 0, 1.225517240054654e-12
10, 41, 0, 9.645068255601346e-13
10, 42, 0, 8.099896774220966e-13
10, 43, 0, 1.49316495684456e-12
10, 44, 0, 4.377957932003268e-13
10, 45, 0, 9.229119070155981e-13
10, 46, 0, 1.502060416688098e-12
10, 47, 0, 1.395259160274513e-12
10, 48, 0, 1.048946692296216e-12
10, 49, 0, 1.489355132054078e-12
10, 50, 0, 1.012170464188418e-12
10, 51, 0, 4.656696762294284e-13
10, 52, 0, 1.078115202700168e-12
10, 53, 0, 9.96127830442087e-13
10, 54, 0, 7.282792390879567e-13
10, 55, 0, 1.143480098380685e-12
10, 56, 0, 7.017385738775234e-13
10, 57, 0, 4.485754432824001e-13
10, 58, 0, 7.695828043111804e-13
10, 59, 0, 8.761026682611537e-13
10, 60, 0, 1.394562452609132e-12
10, 61, 0, 7.400824752042711e-13
10, 62, 0, 9.256342166521217e-13
10, 63, 0, 5.755502295171676e-13
10, 64, 0, 6.55762541315289e-13
10, 65, 0, 6.635694518836691e-13
10, 66, 0, 9.380054158179797e-13
10, 67, 0, 2.203885629454978e-13
10, 68, 0, 1.166411925178164e-12
10, 69, 0, 5.183883391762779e-13
10, 70, 0, 1.934378194443638e-12
10, 71, 0, 6.325317500391364e-13
10, 72, 0, 1.17442803256559e-12
10, 73, 0, 7.190516762999241e-13
10, 74, 0, 3.689767662190526e-13
10, 75, 0, 9.283238387018424e-13
10, 76, 0, 4.393652900874822e-13
10, 77, 0, 1.081779053035151e-12
10, 78, 0, 5.447707658992187e-13
10, 79, 0, 1.103946849254676e-12
11, 0, 0, 9.797487621260255e-13
11, 1, 0, 6.020240734479052e-13
11, 2, 0, 3.125098705465786e-13
11, 3, 0, 7.98962506280046e-13
11, 4, 0, 1.245282984743181e-12
11, 5, 0, 1.094336409089166e-12
11, 6, 0, 8.768723612531096e-13
11, 7, 0, 1.101675415702561e-12
11, 8, 0, 2.911390537314101e-13
11, 9, 0, 1.248293526964856e-12
11, 10, 0, 5.299427965453315e-13
11, 11, 0, 5.966302928825174e-13
11, 12, 0, 9.940202155341728e-13
11, 13, 0, 6.360779003156753e-13
11, 14, 0, 1.307072430825406e-12
11, 15, 0, 1.605976236490532e-12
11, 16, 0, 8.129776724597416e-13
11, 17, 0, 9.212139635561939e-13
11, 18, 0, 9.16434165012098e-13
11, 19, 0, 1.022140351258675e-12
11, 20, 0, 5.243257569977413e-13
11, 21, 0, 1.614011371852332e-12
11, 22, 0, 8.984485915725599e-13
11, 23, 0, 1.172524653727385e-12
11, 24, 0, 1.579677158657149e-12
11, 25, 0, 7.882122338231905e-13
11, 26, 0, 1.358150016171919e-12
11, 27, 0, 7.278573447766206e-13
11, 28, 0, 1.581258397602523e-12
11, 29, 0, 1.203043566722817e-12
11, 30, 0, 8.143098357016802e-13
11, 31, 0, 1.64767878375521e-12
11, 32, 0, 1.569782507703487e-12
11, 33, 0, 1.627150977077096e-12
11, 34, 0, 5.549749122880824e-13
11, 35, 0, 1.396044388421313e-12
11, 36, 0, 1.396717865251192e-12
11, 37, 0, 1.161467908683608e-12
11, 38, 0, 9.219383841229369e-13
11, 39, 0, 1.555249114866605e-12
11, 40, 0, 1.090256184938176e-12
11, 41, 0, 1.232976201358107e-12
11, 42, 0, 6.719381927938383e-13
11, 43, 0, 6.884194550033259e-13
11, 44, 0, 1.199124597624453e-12
11, 45, 0, 1.559789606870757e-12
11, 46, 0, 6.734361839800438e-13
11, 47, 0, 1.315452834645801e-12
11, 48, 0, 4.333430064911958e-13
11, 49, 0, 1.003223176841555e-12
11, 50, 0, 1.038639499186725e-12
11, 51, 0, 9.282237110300623e-13
11, 52, 0, 1.258101007152742e-12
