# TOPAS Version: 3.3.p1
# Parameter File: BaseFile.txt
# Results for scorer Dij
# Scored in component: DoseGrid
# X in 80 bins of 0.1 cm
# Y in 80 bins of 0.1 cm
# Z in 10 bins of 0.1 cm
# DoseToMedium ( Gy ) : Mean   
0, 0, 0, 0
0, 0, 1, 0
0, 0, 2, 0
0, 0, 3, 0
0, 0, 4, 0
0, 0, 5, 0
0, 0, 6, 0
0, 0, 7, 0
0, 0, 8, 0
0, 0, 9, 0
0, 1, 0, 0
0, 1, 1, 0
0, 1, 2, 0
0, 1, 3, 0
0, 1, 4, 0
0, 1, 5, 0
0, 1, 6, 0
0, 1, 7, 0
0, 1, 8, 0
0, 1, 9, 0
0, 2, 0, 0
0, 2, 1, 0
0, 2, 2, 0
0, 2, 3, 0
0, 2, 4, 0
0, 2, 5, 0
0, 2, 6, 0
0, 2, 7, 0
0, 2, 8, 0
0, 2, 9, 0
0, 3, 0, 0
0, 3, 1, 0
0, 3, 2, 0
0, 3, 3, 0
0, 3, 4, 0
0, 3, 5, 0
0, 3, 6, 0
0, 3, 7, 0
0, 3, 8, 0
0, 3, 9, 0
0, 4, 0, 0
0, 4, 1, 0
0, 4, 2, 0
0, 4, 3, 0
0, 4, 4, 0
0, 4, 5, 0
0, 4, 6, 0
0, 4, 7, 0
0, 4, 8, 0
0, 4, 9, 0
0, 5, 0, 0
0, 5, 1, 0
0, 5, 2, 0
0, 5, 3, 0
0, 5, 4, 0
0, 5, 5, 0
0, 5, 6, 0
0, 5, 7, 0
0, 5, 8, 0
0, 5, 9, 0
0, 6, 0, 0
0, 6, 1, 0
0, 6, 2, 0
0, 6, 3, 0
0, 6, 4, 0
0, 6, 5, 0
0, 6, 6, 0
0, 6, 7, 0
0, 6, 8, 0
0, 6, 9, 0
0, 7, 0, 0
0, 7, 1, 0
0, 7, 2, 0
0, 7, 3, 0
0, 7, 4, 0
0, 7, 5, 0
0, 7, 6, 0
0, 7, 7, 0
0, 7, 8, 0
0, 7, 9, 0
0, 8, 0, 0
0, 8, 1, 0
0, 8, 2, 0
0, 8, 3, 0
0, 8, 4, 0
0, 8, 5, 0
0, 8, 6, 0
0, 8, 7, 0
0, 8, 8, 0
0, 8, 9, 0
0, 9, 0, 0
0, 9, 1, 0
0, 9, 2, 0
0, 9, 3, 0
0, 9, 4, 0
0, 9, 5, 0
0, 9, 6, 0
0, 9, 7, 0
0, 9, 8, 0
0, 9, 9, 0
0, 10, 0, 0
0, 10, 1, 0
0, 10, 2, 0
0, 10, 3, 0
0, 10, 4, 0
0, 10, 5, 0
0, 10, 6, 0
0, 10, 7, 0
0, 10, 8, 0
0, 10, 9, 0
0, 11, 0, 0
0, 11, 1, 0
0, 11, 2, 0
0, 11, 3, 0
0, 11, 4, 0
0, 11, 5, 0
0, 11, 6, 0
0, 11, 7, 0
0, 11, 8, 0
0, 11, 9, 0
0, 12, 0, 0
0, 12, 1, 0
0, 12, 2, 0
0, 12, 3, 0
0, 12, 4, 0
0, 12, 5, 0
0, 12, 6, 0
0, 12, 7, 0
0, 12, 8, 0
0, 12, 9, 0
0, 13, 0, 0
0, 13, 1, 0
0, 13, 2, 0
0, 13, 3, 0
0, 13, 4, 0
0, 13, 5, 0
0, 13, 6, 0
0, 13, 7, 0
0, 13, 8, 0
0, 13, 9, 0
0, 14, 0, 0
0, 14, 1, 0
0, 14, 2, 0
0, 14, 3, 0
0, 14, 4, 0
0, 14, 5, 0
0, 14, 6, 0
0, 14, 7, 0
0, 14, 8, 0
0, 14, 9, 0
0, 15, 0, 0
0, 15, 1, 0
0, 15, 2, 0
0, 15, 3, 0
0, 15, 4, 0
0, 15, 5, 0
0, 15, 6, 0
0, 15, 7, 0
0, 15, 8, 0
0, 15, 9, 0
0, 16, 0, 0
0, 16, 1, 0
0, 16, 2, 0
0, 16, 3, 0
0, 16, 4, 0
0, 16, 5, 0
0, 16, 6, 0
0, 16, 7, 0
0, 16, 8, 0
0, 16, 9, 0
0, 17, 0, 0
0, 17, 1, 0
0, 17, 2, 0
0, 17, 3, 0
0, 17, 4, 0
0, 17, 5, 0
0, 17, 6, 0
0, 17, 7, 0
0, 17, 8, 0
0, 17, 9, 0
0, 18, 0, 0
0, 18, 1, 0
0, 18, 2, 0
0, 18, 3, 0
0, 18, 4, 0
0, 18, 5, 0
0, 18, 6, 0
0, 18, 7, 0
0, 18, 8, 0
0, 18, 9, 0
0, 19, 0, 0
0, 19, 1, 0
0, 19, 2, 0
0, 19, 3, 0
0, 19, 4, 0
0, 19, 5, 0
0, 19, 6, 0
0, 19, 7, 0
0, 19, 8, 0
0, 19, 9, 0
0, 20, 0, 0
0, 20, 1, 0
0, 20, 2, 0
0, 20, 3, 0
0, 20, 4, 0
0, 20, 5, 0
0, 20, 6, 0
0, 20, 7, 0
0, 20, 8, 0
0, 20, 9, 0
0, 21, 0, 0
0, 21, 1, 0
0, 21, 2, 0
0, 21, 3, 0
0, 21, 4, 0
0, 21, 5, 0
0, 21, 6, 0
0, 21, 7, 0
0, 21, 8, 0
0, 21, 9, 0
0, 22, 0, 0
0, 22, 1, 0
0, 22, 2, 0
0, 22, 3, 0
0, 22, 4, 0
0, 22, 5, 0
0, 22, 6, 0
0, 22, 7, 0
0, 22, 8, 0
0, 22, 9, 0
0, 23, 0, 0
0, 23, 1, 0
0, 23, 2, 0
0, 23, 3, 0
0, 23, 4, 0
0, 23, 5, 0
0, 23, 6, 0
0, 23, 7, 0
0, 23, 8, 0
0, 23, 9, 0
0, 24, 0, 0
0, 24, 1, 0
0, 24, 2, 0
0, 24, 3, 0
0, 24, 4, 0
0, 24, 5, 0
0, 24, 6, 0
0, 24, 7, 0
0, 24, 8, 0
0, 24, 9, 0
0, 25, 0, 0
0, 25, 1, 0
0, 25, 2, 0
0, 25, 3, 0
0, 25, 4, 0
0, 25, 5, 0
0, 25, 6, 0
0, 25, 7, 0
0, 25, 8, 0
0, 25, 9, 0
0, 26, 0, 0
0, 26, 1, 0
0, 26, 2, 0
0, 26, 3, 0
0, 26, 4, 0
0, 26, 5, 0
0, 26, 6, 0
0, 26, 7, 0
0, 26, 8, 0
0, 26, 9, 0
0, 27, 0, 0
0, 27, 1, 0
0, 27, 2, 0
0, 27, 3, 0
0, 27, 4, 0
0, 27, 5, 0
0, 27, 6, 0
0, 27, 7, 0
0, 27, 8, 0
0, 27, 9, 0
0, 28, 0, 0
0, 28, 1, 0
0, 28, 2, 0
0, 28, 3, 0
0, 28, 4, 0
0, 28, 5, 0
0, 28, 6, 0
0, 28, 7, 0
0, 28, 8, 0
0, 28, 9, 0
0, 29, 0, 9.055248270975763e-12
0, 29, 1, 2.763393648777814e-11
0, 29, 2, 2.147967975041849e-11
0, 29, 3, 1.828932671811187e-11
0, 29, 4, 1.195298578539381e-11
0, 29, 5, 0
0, 29, 6, 0
0, 29, 7, 0
0, 29, 8, 0
0, 29, 9, 0
0, 30, 0, 0
0, 30, 1, 0
0, 30, 2, 0
0, 30, 3, 0
0, 30, 4, 0
0, 30, 5, 0
0, 30, 6, 0
0, 30, 7, 0
0, 30, 8, 0
0, 30, 9, 0
0, 31, 0, 0
0, 31, 1, 0
0, 31, 2, 0
0, 31, 3, 0
0, 31, 4, 0
0, 31, 5, 0
0, 31, 6, 0
0, 31, 7, 0
0, 31, 8, 0
0, 31, 9, 0
0, 32, 0, 0
0, 32, 1, 0
0, 32, 2, 0
0, 32, 3, 0
0, 32, 4, 0
0, 32, 5, 0
0, 32, 6, 0
0, 32, 7, 0
0, 32, 8, 0
0, 32, 9, 0
0, 33, 0, 0
0, 33, 1, 0
0, 33, 2, 0
0, 33, 3, 0
0, 33, 4, 0
0, 33, 5, 0
0, 33, 6, 0
0, 33, 7, 0
0, 33, 8, 0
0, 33, 9, 0
0, 34, 0, 0
0, 34, 1, 0
0, 34, 2, 0
0, 34, 3, 0
0, 34, 4, 0
0, 34, 5, 0
0, 34, 6, 0
0, 34, 7, 0
0, 34, 8, 0
0, 34, 9, 0
0, 35, 0, 0
0, 35, 1, 0
0, 35, 2, 0
0, 35, 3, 0
0, 35, 4, 0
0, 35, 5, 0
0, 35, 6, 0
0, 35, 7, 0
0, 35, 8, 0
0, 35, 9, 0
0, 36, 0, 0
0, 36, 1, 0
0, 36, 2, 0
0, 36, 3, 0
0, 36, 4, 0
0, 36, 5, 0
0, 36, 6, 0
0, 36, 7, 0
0, 36, 8, 0
0, 36, 9, 0
0, 37, 0, 0
0, 37, 1, 0
0, 37, 2, 0
0, 37, 3, 0
0, 37, 4, 0
0, 37, 5, 0
0, 37, 6, 0
0, 37, 7, 0
0, 37, 8, 0
0, 37, 9, 0
0, 38, 0, 0
0, 38, 1, 0
0, 38, 2, 0
0, 38, 3, 0
0, 38, 4, 0
0, 38, 5, 0
0, 38, 6, 0
0, 38, 7, 0
0, 38, 8, 0
0, 38, 9, 0
0, 39, 0, 0
0, 39, 1, 0
0, 39, 2, 0
0, 39, 3, 0
0, 39, 4, 0
0, 39, 5, 0
0, 39, 6, 0
0, 39, 7, 0
0, 39, 8, 0
0, 39, 9, 0
0, 40, 0, 0
0, 40, 1, 0
0, 40, 2, 0
0, 40, 3, 0
0, 40, 4, 0
0, 40, 5, 0
0, 40, 6, 0
0, 40, 7, 0
0, 40, 8, 0
0, 40, 9, 0
0, 41, 0, 0
0, 41, 1, 0
0, 41, 2, 0
0, 41, 3, 0
0, 41, 4, 0
0, 41, 5, 0
0, 41, 6, 0
0, 41, 7, 0
0, 41, 8, 0
0, 41, 9, 0
0, 42, 0, 0
0, 42, 1, 0
0, 42, 2, 0
0, 42, 3, 0
0, 42, 4, 0
0, 42, 5, 0
0, 42, 6, 0
0, 42, 7, 0
0, 42, 8, 0
0, 42, 9, 0
0, 43, 0, 0
0, 43, 1, 0
0, 43, 2, 0
0, 43, 3, 0
0, 43, 4, 0
0, 43, 5, 0
0, 43, 6, 0
0, 43, 7, 0
0, 43, 8, 0
0, 43, 9, 0
0, 44, 0, 0
0, 44, 1, 0
0, 44, 2, 0
0, 44, 3, 0
0, 44, 4, 0
0, 44, 5, 0
0, 44, 6, 0
0, 44, 7, 0
0, 44, 8, 0
0, 44, 9, 0
0, 45, 0, 0
0, 45, 1, 0
0, 45, 2, 0
0, 45, 3, 0
0, 45, 4, 0
0, 45, 5, 0
0, 45, 6, 0
0, 45, 7, 0
0, 45, 8, 0
0, 45, 9, 0
0, 46, 0, 0
0, 46, 1, 0
0, 46, 2, 0
0, 46, 3, 0
0, 46, 4, 0
0, 46, 5, 0
0, 46, 6, 0
0, 46, 7, 0
0, 46, 8, 0
0, 46, 9, 0
0, 47, 0, 0
0, 47, 1, 0
0, 47, 2, 0
0, 47, 3, 0
0, 47, 4, 0
0, 47, 5, 0
0, 47, 6, 0
0, 47, 7, 0
0, 47, 8, 0
0, 47, 9, 0
0, 48, 0, 0
0, 48, 1, 0
0, 48, 2, 0
0, 48, 3, 0
0, 48, 4, 0
0, 48, 5, 0
0, 48, 6, 0
0, 48, 7, 0
0, 48, 8, 0
0, 48, 9, 0
0, 49, 0, 0
0, 49, 1, 0
0, 49, 2, 0
0, 49, 3, 0
0, 49, 4, 0
0, 49, 5, 0
0, 49, 6, 0
0, 49, 7, 0
0, 49, 8, 0
0, 49, 9, 0
0, 50, 0, 0
0, 50, 1, 0
0, 50, 2, 0
0, 50, 3, 0
0, 50, 4, 0
0, 50, 5, 0
0, 50, 6, 0
0, 50, 7, 0
0, 50, 8, 0
0, 50, 9, 0
0, 51, 0, 0
0, 51, 1, 0
0, 51, 2, 0
0, 51, 3, 0
0, 51, 4, 0
0, 51, 5, 0
0, 51, 6, 0
0, 51, 7, 0
0, 51, 8, 0
0, 51, 9, 0
0, 52, 0, 0
0, 52, 1, 0
0, 52, 2, 0
0, 52, 3, 0
0, 52, 4, 0
0, 52, 5, 0
0, 52, 6, 0
0, 52, 7, 0
0, 52, 8, 0
0, 52, 9, 0
0, 53, 0, 0
0, 53, 1, 0
0, 53, 2, 0
0, 53, 3, 0
0, 53, 4, 0
0, 53, 5, 0
0, 53, 6, 0
0, 53, 7, 0
0, 53, 8, 0
0, 53, 9, 0
0, 54, 0, 0
0, 54, 1, 0
0, 54, 2, 0
0, 54, 3, 0
0, 54, 4, 0
0, 54, 5, 0
0, 54, 6, 0
0, 54, 7, 0
0, 54, 8, 0
0, 54, 9, 0
0, 55, 0, 0
0, 55, 1, 0
0, 55, 2, 0
0, 55, 3, 0
0, 55, 4, 0
0, 55, 5, 0
0, 55, 6, 0
0, 55, 7, 0
0, 55, 8, 0
0, 55, 9, 0
0, 56, 0, 0
0, 56, 1, 0
0, 56, 2, 0
0, 56, 3, 0
0, 56, 4, 0
0, 56, 5, 0
0, 56, 6, 0
0, 56, 7, 0
0, 56, 8, 0
0, 56, 9, 0
0, 57, 0, 0
0, 57, 1, 0
0, 57, 2, 0
0, 57, 3, 0
0, 57, 4, 0
0, 57, 5, 0
0, 57, 6, 0
0, 57, 7, 0
0, 57, 8, 0
0, 57, 9, 0
0, 58, 0, 0
0, 58, 1, 0
0, 58, 2, 0
0, 58, 3, 0
0, 58, 4, 0
0, 58, 5, 0
0, 58, 6, 0
0, 58, 7, 0
0, 58, 8, 0
0, 58, 9, 0
0, 59, 0, 0
0, 59, 1, 0
0, 59, 2, 0
0, 59, 3, 0
0, 59, 4, 0
0, 59, 5, 0
0, 59, 6, 0
0, 59, 7, 0
0, 59, 8, 0
0, 59, 9, 0
0, 60, 0, 0
0, 60, 1, 0
0, 60, 2, 0
0, 60, 3, 0
0, 60, 4, 0
0, 60, 5, 0
0, 60, 6, 0
0, 60, 7, 0
0, 60, 8, 0
0, 60, 9, 0
0, 61, 0, 0
0, 61, 1, 0
0, 61, 2, 0
0, 61, 3, 0
0, 61, 4, 0
0, 61, 5, 0
0, 61, 6, 0
0, 61, 7, 0
0, 61, 8, 0
0, 61, 9, 0
0, 62, 0, 0
0, 62, 1, 0
0, 62, 2, 0
0, 62, 3, 0
0, 62, 4, 0
0, 62, 5, 0
0, 62, 6, 0
0, 62, 7, 0
0, 62, 8, 0
0, 62, 9, 0
0, 63, 0, 0
0, 63, 1, 0
0, 63, 2, 0
0, 63, 3, 0
0, 63, 4, 0
0, 63, 5, 0
0, 63, 6, 0
0, 63, 7, 0
0, 63, 8, 0
0, 63, 9, 0
0, 64, 0, 0
0, 64, 1, 0
0, 64, 2, 0
0, 64, 3, 0
0, 64, 4, 0
0, 64, 5, 0
0, 64, 6, 0
0, 64, 7, 0
0, 64, 8, 0
0, 64, 9, 0
0, 65, 0, 0
0, 65, 1, 0
0, 65, 2, 0
0, 65, 3, 0
0, 65, 4, 0
0, 65, 5, 0
0, 65, 6, 0
0, 65, 7, 0
0, 65, 8, 0
0, 65, 9, 0
0, 66, 0, 0
0, 66, 1, 0
0, 66, 2, 0
0, 66, 3, 0
0, 66, 4, 0
0, 66, 5, 0
0, 66, 6, 0
0, 66, 7, 0
0, 66, 8, 0
0, 66, 9, 0
0, 67, 0, 0
0, 67, 1, 0
0, 67, 2, 0
0, 67, 3, 0
0, 67, 4, 0
0, 67, 5, 0
0, 67, 6, 0
0, 67, 7, 0
0, 67, 8, 0
0, 67, 9, 0
0, 68, 0, 0
0, 68, 1, 0
0, 68, 2, 0
0, 68, 3, 0
0, 68, 4, 0
0, 68, 5, 0
0, 68, 6, 0
0, 68, 7, 0
0, 68, 8, 0
0, 68, 9, 0
0, 69, 0, 0
0, 69, 1, 0
0, 69, 2, 0
0, 69, 3, 0
0, 69, 4, 0
0, 69, 5, 0
0, 69, 6, 0
0, 69, 7, 0
0, 69, 8, 0
0, 69, 9, 0
0, 70, 0, 0
0, 70, 1, 0
0, 70, 2, 0
0, 70, 3, 0
0, 70, 4, 0
0, 70, 5, 0
0, 70, 6, 0
0, 70, 7, 0
0, 70, 8, 0
0, 70, 9, 0
0, 71, 0, 0
0, 71, 1, 0
0, 71, 2, 0
0, 71, 3, 0
0, 71, 4, 0
0, 71, 5, 0
0, 71, 6, 0
0, 71, 7, 0
0, 71, 8, 0
0, 71, 9, 0
0, 72, 0, 0
0, 72, 1, 0
0, 72, 2, 0
0, 72, 3, 0
0, 72, 4, 0
0, 72, 5, 0
0, 72, 6, 0
0, 72, 7, 0
0, 72, 8, 0
0, 72, 9, 0
0, 73, 0, 0
0, 73, 1, 0
0, 73, 2, 0
0, 73, 3, 0
0, 73, 4, 0
0, 73, 5, 0
0, 73, 6, 0
0, 73, 7, 0
0, 73, 8, 0
0, 73, 9, 0
0, 74, 0, 0
0, 74, 1, 0
0, 74, 2, 0
0, 74, 3, 0
0, 74, 4, 0
0, 74, 5, 0
0, 74, 6, 0
0, 74, 7, 0
0, 74, 8, 0
0, 74, 9, 0
0, 75, 0, 0
0, 75, 1, 0
0, 75, 2, 0
0, 75, 3, 0
0, 75, 4, 0
0, 75, 5, 0
0, 75, 6, 0
0, 75, 7, 0
0, 75, 8, 0
0, 75, 9, 0
0, 76, 0, 0
0, 76, 1, 0
0, 76, 2, 0
0, 76, 3, 0
0, 76, 4, 0
0, 76, 5, 0
0, 76, 6, 0
0, 76, 7, 0
0, 76, 8, 0
0, 76, 9, 0
0, 77, 0, 0
0, 77, 1, 0
0, 77, 2, 0
0, 77, 3, 0
0, 77, 4, 0
0, 77, 5, 0
0, 77, 6, 0
0, 77, 7, 0
0, 77, 8, 0
0, 77, 9, 0
0, 78, 0, 0
0, 78, 1, 0
0, 78, 2, 0
0, 78, 3, 0
0, 78, 4, 0
0, 78, 5, 0
0, 78, 6, 0
0, 78, 7, 0
0, 78, 8, 0
0, 78, 9, 0
0, 79, 0, 0
0, 79, 1, 0
0, 79, 2, 0
0, 79, 3, 0
0, 79, 4, 0
0, 79, 5, 0
0, 79, 6, 0
0, 79, 7, 0
0, 79, 8, 0
0, 79, 9, 0
1, 0, 0, 0
1, 0, 1, 0
1, 0, 2, 0
1, 0, 3, 0
1, 0, 4, 0
1, 0, 5, 0
1, 0, 6, 0
1, 0, 7, 0
1, 0, 8, 0
1, 0, 9, 0
1, 1, 0, 0
1, 1, 1, 0
1, 1, 2, 0
1, 1, 3, 0
1, 1, 4, 0
1, 1, 5, 0
1, 1, 6, 0
1, 1, 7, 0
1, 1, 8, 0
1, 1, 9, 0
1, 2, 0, 0
1, 2, 1, 0
1, 2, 2, 0
1, 2, 3, 0
1, 2, 4, 0
1, 2, 5, 0
1, 2, 6, 0
1, 2, 7, 0
1, 2, 8, 0
1, 2, 9, 0
1, 3, 0, 0
1, 3, 1, 0
1, 3, 2, 0
1, 3, 3, 0
1, 3, 4, 0
1, 3, 5, 0
1, 3, 6, 0
1, 3, 7, 0
1, 3, 8, 0
1, 3, 9, 0
1, 4, 0, 0
1, 4, 1, 0
1, 4, 2, 0
1, 4, 3, 0
1, 4, 4, 0
1, 4, 5, 0
1, 4, 6, 0
1, 4, 7, 0
1, 4, 8, 0
1, 4, 9, 0
1, 5, 0, 0
1, 5, 1, 0
1, 5, 2, 0
1, 5, 3, 0
1, 5, 4, 0
1, 5, 5, 0
1, 5, 6, 0
1, 5, 7, 0
1, 5, 8, 0
1, 5, 9, 0
1, 6, 0, 0
1, 6, 1, 0
1, 6, 2, 0
1, 6, 3, 0
1, 6, 4, 0
1, 6, 5, 0
1, 6, 6, 0
1, 6, 7, 0
1, 6, 8, 0
1, 6, 9, 0
1, 7, 0, 0
1, 7, 1, 0
1, 7, 2, 0
1, 7, 3, 0
1, 7, 4, 0
1, 7, 5, 0
1, 7, 6, 0
1, 7, 7, 0
1, 7, 8, 0
1, 7, 9, 0
1, 8, 0, 0
1, 8, 1, 0
1, 8, 2, 0
1, 8, 3, 0
1, 8, 4, 0
1, 8, 5, 0
1, 8, 6, 0
1, 8, 7, 0
1, 8, 8, 0
1, 8, 9, 0
1, 9, 0, 0
1, 9, 1, 0
1, 9, 2, 0
1, 9, 3, 0
1, 9, 4, 0
1, 9, 5, 0
1, 9, 6, 0
1, 9, 7, 0
1, 9, 8, 0
1, 9, 9, 0
1, 10, 0, 0
1, 10, 1, 0
1, 10, 2, 0
1, 10, 3, 0
1, 10, 4, 0
1, 10, 5, 0
1, 10, 6, 0
1, 10, 7, 0
1, 10, 8, 0
1, 10, 9, 0
1, 11, 0, 0
1, 11, 1, 0
1, 11, 2, 0
1, 11, 3, 0
1, 11, 4, 0
1, 11, 5, 0
1, 11, 6, 0
1, 11, 7, 0
1, 11, 8, 0
1, 11, 9, 0
1, 12, 0, 0
1, 12, 1, 0
1, 12, 2, 0
1, 12, 3, 0
1, 12, 4, 0
1, 12, 5, 0
1, 12, 6, 0
1, 12, 7, 0
1, 12, 8, 0
1, 12, 9, 0
1, 13, 0, 0
1, 13, 1, 0
1, 13, 2, 0
1, 13, 3, 0
1, 13, 4, 0
1, 13, 5, 0
1, 13, 6, 0
1, 13, 7, 0
1, 13, 8, 0
1, 13, 9, 0
1, 14, 0, 0
1, 14, 1, 0
1, 14, 2, 0
1, 14, 3, 0
1, 14, 4, 0
1, 14, 5, 0
1, 14, 6, 0
1, 14, 7, 0
1, 14, 8, 0
1, 14, 9, 0
1, 15, 0, 0
1, 15, 1, 0
1, 15, 2, 0
1, 15, 3, 0
1, 15, 4, 0
1, 15, 5, 0
1, 15, 6, 0
1, 15, 7, 0
1, 15, 8, 0
1, 15, 9, 0
1, 16, 0, 0
1, 16, 1, 0
1, 16, 2, 0
1, 16, 3, 0
1, 16, 4, 0
1, 16, 5, 0
1, 16, 6, 0
1, 16, 7, 0
1, 16, 8, 0
1, 16, 9, 0
1, 17, 0, 0
1, 17, 1, 0
1, 17, 2, 0
1, 17, 3, 0
1, 17, 4, 0
1, 17, 5, 0
1, 17, 6, 0
1, 17, 7, 0
1, 17, 8, 0
1, 17, 9, 0
1, 18, 0, 0
1, 18, 1, 0
1, 18, 2, 0
1, 18, 3, 0
1, 18, 4, 0
1, 18, 5, 0
1, 18, 6, 0
1, 18, 7, 0
1, 18, 8, 0
1, 18, 9, 0
1, 19, 0, 0
1, 19, 1, 0
1, 19, 2, 0
1, 19, 3, 0
1, 19, 4, 0
1, 19, 5, 0
1, 19, 6, 0
1, 19, 7, 0
1, 19, 8, 0
1, 19, 9, 0
1, 20, 0, 0
1, 20, 1, 0
1, 20, 2, 0
1, 20, 3, 0
1, 20, 4, 0
1, 20, 5, 0
1, 20, 6, 0
1, 20, 7, 0
1, 20, 8, 0
1, 20, 9, 0
1, 21, 0, 0
1, 21, 1, 0
1, 21, 2, 0
1, 21, 3, 0
1, 21, 4, 0
1, 21, 5, 0
1, 21, 6, 0
1, 21, 7, 0
1, 21, 8, 0
1, 21, 9, 0
1, 22, 0, 0
1, 22, 1, 0
1, 22, 2, 0
1, 22, 3, 0
1, 22, 4, 0
1, 22, 5, 0
1, 22, 6, 0
1, 22, 7, 0
1, 22, 8, 0
1, 22, 9, 0
1, 23, 0, 0
1, 23, 1, 0
1, 23, 2, 0
1, 23, 3, 0
1, 23, 4, 0
1, 23, 5, 0
1, 23, 6, 0
1, 23, 7, 0
1, 23, 8, 0
1, 23, 9, 0
1, 24, 0, 0
1, 24, 1, 0
1, 24, 2, 0
1, 24, 3, 0
1, 24, 4, 0
1, 24, 5, 0
1, 24, 6, 0
1, 24, 7, 0
1, 24, 8, 0
1, 24, 9, 0
1, 25, 0, 0
1, 25, 1, 0
1, 25, 2, 0
1, 25, 3, 0
1, 25, 4, 0
1, 25, 5, 0
1, 25, 6, 0
1, 25, 7, 0
1, 25, 8, 0
1, 25, 9, 0
1, 26, 0, 0
1, 26, 1, 0
1, 26, 2, 0
1, 26, 3, 0
1, 26, 4, 0
1, 26, 5, 0
1, 26, 6, 0
1, 26, 7, 0
1, 26, 8, 0
1, 26, 9, 0
1, 27, 0, 0
1, 27, 1, 0
1, 27, 2, 0
1, 27, 3, 0
1, 27, 4, 0
1, 27, 5, 0
1, 27, 6, 0
1, 27, 7, 0
1, 27, 8, 0
1, 27, 9, 0
1, 28, 0, 0
1, 28, 1, 0
1, 28, 2, 0
1, 28, 3, 0
1, 28, 4, 0
1, 28, 5, 0
1, 28, 6, 0
1, 28, 7, 0
1, 28, 8, 0
1, 28, 9, 0
1, 29, 0, 0
1, 29, 1, 0
1, 29, 2, 0
1, 29, 3, 0
1, 29, 4, 4.056505209769147e-12
1, 29, 5, 1.444599217517489e-11
1, 29, 6, 1.245375540065874e-11
1, 29, 7, 1.290691828478129e-11
1, 29, 8, 4.204926885203128e-12
1, 29, 9, 0
1, 30, 0, 0
1, 30, 1, 0
1, 30, 2, 0
1, 30, 3, 0
1, 30, 4, 0
1, 30, 5, 0
1, 30, 6, 0
1, 30, 7, 0
1, 30, 8, 0
1, 30, 9, 0
1, 31, 0, 0
1, 31, 1, 0
1, 31, 2, 0
1, 31, 3, 0
1, 31, 4, 0
1, 31, 5, 0
1, 31, 6, 0
1, 31, 7, 0
1, 31, 8, 0
1, 31, 9, 0
1, 32, 0, 0
1, 32, 1, 0
1, 32, 2, 0
1, 32, 3, 0
1, 32, 4, 0
1, 32, 5, 0
1, 32, 6, 0
1, 32, 7, 0
1, 32, 8, 0
1, 32, 9, 0
1, 33, 0, 0
1, 33, 1, 0
1, 33, 2, 0
1, 33, 3, 0
1, 33, 4, 0
1, 33, 5, 0
1, 33, 6, 0
1, 33, 7, 0
1, 33, 8, 0
1, 33, 9, 0
1, 34, 0, 0
1, 34, 1, 0
1, 34, 2, 0
1, 34, 3, 0
1, 34, 4, 0
1, 34, 5, 0
1, 34, 6, 0
1, 34, 7, 0
1, 34, 8, 0
1, 34, 9, 0
1, 35, 0, 0
1, 35, 1, 0
1, 35, 2, 0
1, 35, 3, 0
1, 35, 4, 0
1, 35, 5, 0
1, 35, 6, 0
1, 35, 7, 0
1, 35, 8, 0
1, 35, 9, 0
1, 36, 0, 0
1, 36, 1, 0
1, 36, 2, 0
1, 36, 3, 0
1, 36, 4, 0
1, 36, 5, 0
1, 36, 6, 0
1, 36, 7, 0
1, 36, 8, 0
1, 36, 9, 0
1, 37, 0, 0
1, 37, 1, 0
1, 37, 2, 0
1, 37, 3, 0
1, 37, 4, 0
1, 37, 5, 0
1, 37, 6, 0
1, 37, 7, 0
1, 37, 8, 0
1, 37, 9, 0
1, 38, 0, 0
1, 38, 1, 0
1, 38, 2, 0
1, 38, 3, 0
1, 38, 4, 0
1, 38, 5, 0
1, 38, 6, 0
1, 38, 7, 0
1, 38, 8, 0
1, 38, 9, 0
1, 39, 0, 0
1, 39, 1, 0
1, 39, 2, 0
1, 39, 3, 0
1, 39, 4, 0
1, 39, 5, 0
1, 39, 6, 0
1, 39, 7, 0
1, 39, 8, 0
1, 39, 9, 0
1, 40, 0, 0
1, 40, 1, 0
1, 40, 2, 0
1, 40, 3, 0
1, 40, 4, 0
1, 40, 5, 0
1, 40, 6, 0
1, 40, 7, 0
1, 40, 8, 0
1, 40, 9, 0
1, 41, 0, 0
1, 41, 1, 0
1, 41, 2, 0
1, 41, 3, 0
1, 41, 4, 0
1, 41, 5, 0
1, 41, 6, 0
1, 41, 7, 0
1, 41, 8, 0
1, 41, 9, 0
1, 42, 0, 0
1, 42, 1, 0
1, 42, 2, 0
1, 42, 3, 0
1, 42, 4, 0
1, 42, 5, 0
1, 42, 6, 0
1, 42, 7, 0
1, 42, 8, 0
1, 42, 9, 0
1, 43, 0, 0
1, 43, 1, 0
1, 43, 2, 0
1, 43, 3, 0
1, 43, 4, 0
1, 43, 5, 0
1, 43, 6, 0
1, 43, 7, 0
1, 43, 8, 0
1, 43, 9, 0
1, 44, 0, 0
1, 44, 1, 0
1, 44, 2, 0
1, 44, 3, 0
1, 44, 4, 0
1, 44, 5, 0
1, 44, 6, 0
1, 44, 7, 0
1, 44, 8, 0
1, 44, 9, 0
1, 45, 0, 2.269519704540712e-11
1, 45, 1, 1.865739686200154e-11
1, 45, 2, 1.039447648951025e-11
1, 45, 3, 0
1, 45, 4, 0
1, 45, 5, 0
1, 45, 6, 0
1, 45, 7, 0
1, 45, 8, 0
1, 45, 9, 0
1, 46, 0, 0
1, 46, 1, 0
1, 46, 2, 0
1, 46, 3, 0
1, 46, 4, 0
1, 46, 5, 0
1, 46, 6, 0
1, 46, 7, 0
1, 46, 8, 0
1, 46, 9, 0
1, 47, 0, 0
1, 47, 1, 0
1, 47, 2, 0
1, 47, 3, 0
1, 47, 4, 0
1, 47, 5, 0
1, 47, 6, 0
1, 47, 7, 0
1, 47, 8, 0
1, 47, 9, 0
1, 48, 0, 0
1, 48, 1, 0
1, 48, 2, 0
1, 48, 3, 0
1, 48, 4, 0
1, 48, 5, 0
1, 48, 6, 0
1, 48, 7, 0
1, 48, 8, 0
1, 48, 9, 0
1, 49, 0, 0
1, 49, 1, 0
1, 49, 2, 0
1, 49, 3, 0
1, 49, 4, 0
1, 49, 5, 0
1, 49, 6, 0
1, 49, 7, 0
1, 49, 8, 0
1, 49, 9, 0
1, 50, 0, 0
1, 50, 1, 0
1, 50, 2, 0
1, 50, 3, 0
1, 50, 4, 0
1, 50, 5, 0
1, 50, 6, 0
1, 50, 7, 0
1, 50, 8, 0
1, 50, 9, 0
1, 51, 0, 0
1, 51, 1, 0
1, 51, 2, 0
1, 51, 3, 0
1, 51, 4, 0
1, 51, 5, 0
1, 51, 6, 0
1, 51, 7, 0
1, 51, 8, 0
1, 51, 9, 0
1, 52, 0, 0
1, 52, 1, 0
1, 52, 2, 0
1, 52, 3, 0
1, 52, 4, 0
1, 52, 5, 0
1, 52, 6, 0
1, 52, 7, 0
1, 52, 8, 0
1, 52, 9, 0
1, 53, 0, 0
1, 53, 1, 0
1, 53, 2, 0
1, 53, 3, 0
1, 53, 4, 0
1, 53, 5, 0
1, 53, 6, 0
1, 53, 7, 0
1, 53, 8, 0
1, 53, 9, 0
1, 54, 0, 0
1, 54, 1, 0
1, 54, 2, 0
1, 54, 3, 0
1, 54, 4, 0
1, 54, 5, 0
1, 54, 6, 0
1, 54, 7, 0
1, 54, 8, 0
1, 54, 9, 0
1, 55, 0, 0
1, 55, 1, 0
1, 55, 2, 0
1, 55, 3, 0
1, 55, 4, 0
1, 55, 5, 0
1, 55, 6, 0
1, 55, 7, 0
1, 55, 8, 0
1, 55, 9, 0
1, 56, 0, 0
1, 56, 1, 0
1, 56, 2, 0
1, 56, 3, 0
1, 56, 4, 0
1, 56, 5, 0
1, 56, 6, 0
1, 56, 7, 0
1, 56, 8, 0
1, 56, 9, 0
1, 57, 0, 0
1, 57, 1, 0
1, 57, 2, 0
1, 57, 3, 0
1, 57, 4, 0
1, 57, 5, 0
1, 57, 6, 0
1, 57, 7, 0
1, 57, 8, 0
1, 57, 9, 0
1, 58, 0, 0
1, 58, 1, 0
1, 58, 2, 0
1, 58, 3, 0
1, 58, 4, 0
1, 58, 5, 0
1, 58, 6, 0
1, 58, 7, 0
1, 58, 8, 0
1, 58, 9, 0
1, 59, 0, 0
1, 59, 1, 0
1, 59, 2, 0
1, 59, 3, 0
1, 59, 4, 0
1, 59, 5, 0
1, 59, 6, 0
1, 59, 7, 0
1, 59, 8, 0
1, 59, 9, 0
1, 60, 0, 0
1, 60, 1, 0
1, 60, 2, 0
1, 60, 3, 0
1, 60, 4, 0
1, 60, 5, 0
1, 60, 6, 0
1, 60, 7, 0
1, 60, 8, 0
1, 60, 9, 0
1, 61, 0, 0
1, 61, 1, 0
1, 61, 2, 0
1, 61, 3, 0
1, 61, 4, 0
1, 61, 5, 0
1, 61, 6, 0
1, 61, 7, 0
1, 61, 8, 0
1, 61, 9, 0
1, 62, 0, 0
1, 62, 1, 0
1, 62, 2, 0
1, 62, 3, 0
1, 62, 4, 0
1, 62, 5, 0
1, 62, 6, 0
1, 62, 7, 0
1, 62, 8, 0
1, 62, 9, 0
1, 63, 0, 0
1, 63, 1, 0
1, 63, 2, 0
1, 63, 3, 0
1, 63, 4, 0
1, 63, 5, 0
1, 63, 6, 0
1, 63, 7, 0
1, 63, 8, 0
1, 63, 9, 0
1, 64, 0, 0
1, 64, 1, 0
1, 64, 2, 0
1, 64, 3, 0
1, 64, 4, 0
1, 64, 5, 0
1, 64, 6, 0
1, 64, 7, 0
1, 64, 8, 0
1, 64, 9, 0
1, 65, 0, 0
1, 65, 1, 0
1, 65, 2, 0
1, 65, 3, 0
1, 65, 4, 0
1, 65, 5, 0
1, 65, 6, 0
1, 65, 7, 0
1, 65, 8, 0
1, 65, 9, 0
1, 66, 0, 0
1, 66, 1, 0
1, 66, 2, 0
1, 66, 3, 0
1, 66, 4, 0
1, 66, 5, 0
1, 66, 6, 0
1, 66, 7, 0
1, 66, 8, 0
1, 66, 9, 0
1, 67, 0, 0
1, 67, 1, 0
1, 67, 2, 0
1, 67, 3, 0
1, 67, 4, 0
1, 67, 5, 0
1, 67, 6, 0
1, 67, 7, 0
1, 67, 8, 0
1, 67, 9, 0
1, 68, 0, 0
1, 68, 1, 0
1, 68, 2, 0
1, 68, 3, 0
1, 68, 4, 0
1, 68, 5, 0
1, 68, 6, 0
1, 68, 7, 0
1, 68, 8, 0
1, 68, 9, 0
1, 69, 0, 0
1, 69, 1, 0
1, 69, 2, 0
1, 69, 3, 0
1, 69, 4, 0
1, 69, 5, 0
1, 69, 6, 0
1, 69, 7, 0
1, 69, 8, 0
1, 69, 9, 0
1, 70, 0, 0
1, 70, 1, 0
1, 70, 2, 0
1, 70, 3, 0
1, 70, 4, 0
1, 70, 5, 0
1, 70, 6, 0
1, 70, 7, 0
1, 70, 8, 0
1, 70, 9, 0
1, 71, 0, 0
1, 71, 1, 0
1, 71, 2, 0
1, 71, 3, 0
1, 71, 4, 0
1, 71, 5, 0
1, 71, 6, 0
1, 71, 7, 0
1, 71, 8, 0
1, 71, 9, 0
1, 72, 0, 0
1, 72, 1, 0
1, 72, 2, 0
1, 72, 3, 0
1, 72, 4, 0
1, 72, 5, 0
1, 72, 6, 0
1, 72, 7, 0
1, 72, 8, 0
1, 72, 9, 0
1, 73, 0, 0
1, 73, 1, 0
1, 73, 2, 0
1, 73, 3, 0
1, 73, 4, 0
1, 73, 5, 0
1, 73, 6, 0
1, 73, 7, 0
1, 73, 8, 0
1, 73, 9, 0
1, 74, 0, 0
1, 74, 1, 0
1, 74, 2, 0
1, 74, 3, 0
1, 74, 4, 0
1, 74, 5, 0
1, 74, 6, 0
1, 74, 7, 0
1, 74, 8, 0
1, 74, 9, 0
1, 75, 0, 0
1, 75, 1, 0
1, 75, 2, 0
1, 75, 3, 0
1, 75, 4, 0
1, 75, 5, 0
1, 75, 6, 0
1, 75, 7, 0
1, 75, 8, 0
1, 75, 9, 0
1, 76, 0, 0
1, 76, 1, 0
1, 76, 2, 0
1, 76, 3, 0
1, 76, 4, 0
1, 76, 5, 0
1, 76, 6, 0
1, 76, 7, 0
1, 76, 8, 0
1, 76, 9, 0
1, 77, 0, 0
1, 77, 1, 0
1, 77, 2, 0
1, 77, 3, 0
1, 77, 4, 0
1, 77, 5, 0
1, 77, 6, 0
1, 77, 7, 0
1, 77, 8, 0
1, 77, 9, 0
1, 78, 0, 0
1, 78, 1, 0
1, 78, 2, 0
1, 78, 3, 0
1, 78, 4, 0
1, 78, 5, 0
1, 78, 6, 0
1, 78, 7, 0
1, 78, 8, 0
1, 78, 9, 0
1, 79, 0, 0
1, 79, 1, 0
1, 79, 2, 0
1, 79, 3, 0
1, 79, 4, 0
1, 79, 5, 0
1, 79, 6, 0
1, 79, 7, 0
1, 79, 8, 0
1, 79, 9, 0
2, 0, 0, 0
2, 0, 1, 0
2, 0, 2, 0
2, 0, 3, 0
2, 0, 4, 0
2, 0, 5, 0
2, 0, 6, 0
2, 0, 7, 0
2, 0, 8, 0
2, 0, 9, 0
2, 1, 0, 0
2, 1, 1, 0
2, 1, 2, 0
2, 1, 3, 0
2, 1, 4, 0
2, 1, 5, 0
2, 1, 6, 0
2, 1, 7, 0
2, 1, 8, 0
2, 1, 9, 0
2, 2, 0, 0
2, 2, 1, 0
2, 2, 2, 0
2, 2, 3, 0
2, 2, 4, 0
2, 2, 5, 0
2, 2, 6, 0
2, 2, 7, 0
2, 2, 8, 0
2, 2, 9, 0
2, 3, 0, 0
2, 3, 1, 0
2, 3, 2, 0
2, 3, 3, 0
2, 3, 4, 0
2, 3, 5, 0
2, 3, 6, 0
2, 3, 7, 0
2, 3, 8, 0
2, 3, 9, 0
2, 4, 0, 0
2, 4, 1, 0
2, 4, 2, 0
2, 4, 3, 0
2, 4, 4, 0
2, 4, 5, 0
2, 4, 6, 0
2, 4, 7, 0
2, 4, 8, 0
2, 4, 9, 0
2, 5, 0, 0
2, 5, 1, 0
2, 5, 2, 0
2, 5, 3, 0
2, 5, 4, 0
2, 5, 5, 0
2, 5, 6, 0
2, 5, 7, 0
2, 5, 8, 0
2, 5, 9, 0
2, 6, 0, 0
2, 6, 1, 0
2, 6, 2, 0
2, 6, 3, 0
2, 6, 4, 0
2, 6, 5, 0
2, 6, 6, 0
2, 6, 7, 0
2, 6, 8, 0
2, 6, 9, 0
2, 7, 0, 0
2, 7, 1, 0
2, 7, 2, 0
2, 7, 3, 0
2, 7, 4, 0
2, 7, 5, 0
2, 7, 6, 0
2, 7, 7, 0
2, 7, 8, 0
2, 7, 9, 0
2, 8, 0, 0
2, 8, 1, 0
2, 8, 2, 0
2, 8, 3, 0
2, 8, 4, 0
2, 8, 5, 0
2, 8, 6, 0
2, 8, 7, 0
2, 8, 8, 0
2, 8, 9, 0
2, 9, 0, 0
2, 9, 1, 0
2, 9, 2, 0
2, 9, 3, 0
2, 9, 4, 0
2, 9, 5, 0
2, 9, 6, 0
2, 9, 7, 0
2, 9, 8, 0
2, 9, 9, 0
2, 10, 0, 0
2, 10, 1, 0
2, 10, 2, 0
2, 10, 3, 0
2, 10, 4, 0
2, 10, 5, 0
2, 10, 6, 0
2, 10, 7, 0
2, 10, 8, 0
2, 10, 9, 0
2, 11, 0, 0
2, 11, 1, 0
2, 11, 2, 0
2, 11, 3, 0
2, 11, 4, 0
2, 11, 5, 0
2, 11, 6, 0
2, 11, 7, 0
2, 11, 8, 0
2, 11, 9, 0
2, 12, 0, 0
2, 12, 1, 0
2, 12, 2, 0
2, 12, 3, 0
2, 12, 4, 0
2, 12, 5, 0
2, 12, 6, 0
2, 12, 7, 0
2, 12, 8, 0
2, 12, 9, 0
2, 13, 0, 0
2, 13, 1, 0
2, 13, 2, 0
2, 13, 3, 0
2, 13, 4, 0
2, 13, 5, 0
2, 13, 6, 0
2, 13, 7, 0
2, 13, 8, 0
2, 13, 9, 0
2, 14, 0, 0
2, 14, 1, 0
2, 14, 2, 0
2, 14, 3, 0
2, 14, 4, 0
2, 14, 5, 0
2, 14, 6, 0
2, 14, 7, 0
2, 14, 8, 0
2, 14, 9, 0
2, 15, 0, 0
2, 15, 1, 0
2, 15, 2, 0
2, 15, 3, 0
2, 15, 4, 0
2, 15, 5, 0
2, 15, 6, 0
2, 15, 7, 0
2, 15, 8, 0
2, 15, 9, 0
2, 16, 0, 0
2, 16, 1, 0
2, 16, 2, 0
2, 16, 3, 0
2, 16, 4, 0
2, 16, 5, 0
2, 16, 6, 0
2, 16, 7, 0
2, 16, 8, 0
2, 16, 9, 0
2, 17, 0, 0
2, 17, 1, 0
2, 17, 2, 0
2, 17, 3, 0
2, 17, 4, 0
2, 17, 5, 0
2, 17, 6, 0
2, 17, 7, 0
2, 17, 8, 0
2, 17, 9, 0
2, 18, 0, 0
2, 18, 1, 0
2, 18, 2, 0
2, 18, 3, 0
2, 18, 4, 0
2, 18, 5, 0
2, 18, 6, 0
2, 18, 7, 0
2, 18, 8, 0
2, 18, 9, 0
2, 19, 0, 0
2, 19, 1, 0
2, 19, 2, 0
2, 19, 3, 0
2, 19, 4, 0
2, 19, 5, 0
2, 19, 6, 0
2, 19, 7, 0
2, 19, 8, 0
2, 19, 9, 0
2, 20, 0, 0
2, 20, 1, 0
2, 20, 2, 0
2, 20, 3, 0
2, 20, 4, 0
2, 20, 5, 0
2, 20, 6, 0
2, 20, 7, 0
2, 20, 8, 0
2, 20, 9, 0
2, 21, 0, 0
2, 21, 1, 0
2, 21, 2, 0
2, 21, 3, 0
2, 21, 4, 0
2, 21, 5, 0
2, 21, 6, 0
2, 21, 7, 0
2, 21, 8, 0
2, 21, 9, 0
2, 22, 0, 0
2, 22, 1, 0
2, 22, 2, 0
2, 22, 3, 0
2, 22, 4, 0
2, 22, 5, 0
2, 22, 6, 0
2, 22, 7, 0
2, 22, 8, 0
2, 22, 9, 0
2, 23, 0, 0
2, 23, 1, 0
2, 23, 2, 0
2, 23, 3, 0
2, 23, 4, 0
2, 23, 5, 0
2, 23, 6, 0
2, 23, 7, 0
2, 23, 8, 0
2, 23, 9, 0
2, 24, 0, 0
2, 24, 1, 0
2, 24, 2, 0
2, 24, 3, 0
2, 24, 4, 0
2, 24, 5, 0
2, 24, 6, 0
2, 24, 7, 0
2, 24, 8, 0
2, 24, 9, 0
2, 25, 0, 0
2, 25, 1, 0
2, 25, 2, 0
2, 25, 3, 0
2, 25, 4, 0
2, 25, 5, 0
2, 25, 6, 0
2, 25, 7, 0
2, 25, 8, 0
2, 25, 9, 0
2, 26, 0, 0
2, 26, 1, 0
2, 26, 2, 0
2, 26, 3, 0
2, 26, 4, 0
2, 26, 5, 0
2, 26, 6, 0
2, 26, 7, 0
2, 26, 8, 0
2, 26, 9, 0
2, 27, 0, 0
2, 27, 1, 0
2, 27, 2, 0
2, 27, 3, 0
2, 27, 4, 0
2, 27, 5, 0
2, 27, 6, 0
2, 27, 7, 0
2, 27, 8, 0
2, 27, 9, 0
2, 28, 0, 0
2, 28, 1, 0
2, 28, 2, 0
2, 28, 3, 0
2, 28, 4, 0
2, 28, 5, 0
2, 28, 6, 0
2, 28, 7, 0
2, 28, 8, 0
2, 28, 9, 0
2, 29, 0, 0
2, 29, 1, 0
2, 29, 2, 0
2, 29, 3, 0
2, 29, 4, 0
2, 29, 5, 0
2, 29, 6, 0
2, 29, 7, 0
2, 29, 8, 7.377041228756192e-12
2, 29, 9, 1.16227410052542e-11
2, 30, 0, 0
2, 30, 1, 0
2, 30, 2, 0
2, 30, 3, 0
2, 30, 4, 0
2, 30, 5, 0
2, 30, 6, 0
2, 30, 7, 0
2, 30, 8, 0
2, 30, 9, 0
2, 31, 0, 0
2, 31, 1, 0
2, 31, 2, 0
2, 31, 3, 0
2, 31, 4, 0
2, 31, 5, 0
2, 31, 6, 0
2, 31, 7, 0
2, 31, 8, 0
2, 31, 9, 0
2, 32, 0, 0
2, 32, 1, 0
2, 32, 2, 0
2, 32, 3, 0
2, 32, 4, 0
2, 32, 5, 0
2, 32, 6, 0
2, 32, 7, 0
2, 32, 8, 0
2, 32, 9, 0
2, 33, 0, 0
2, 33, 1, 0
2, 33, 2, 0
2, 33, 3, 0
2, 33, 4, 0
2, 33, 5, 0
2, 33, 6, 0
2, 33, 7, 0
2, 33, 8, 0
2, 33, 9, 0
2, 34, 0, 0
2, 34, 1, 0
2, 34, 2, 0
2, 34, 3, 0
2, 34, 4, 0
2, 34, 5, 0
2, 34, 6, 0
2, 34, 7, 0
2, 34, 8, 0
2, 34, 9, 0
2, 35, 0, 0
2, 35, 1, 0
2, 35, 2, 0
2, 35, 3, 0
2, 35, 4, 0
2, 35, 5, 0
2, 35, 6, 0
2, 35, 7, 0
2, 35, 8, 0
2, 35, 9, 0
2, 36, 0, 0
2, 36, 1, 0
2, 36, 2, 0
2, 36, 3, 0
2, 36, 4, 0
2, 36, 5, 0
2, 36, 6, 0
2, 36, 7, 0
2, 36, 8, 0
2, 36, 9, 0
2, 37, 0, 0
2, 37, 1, 0
2, 37, 2, 0
2, 37, 3, 0
2, 37, 4, 0
2, 37, 5, 0
2, 37, 6, 0
2, 37, 7, 0
2, 37, 8, 0
2, 37, 9, 0
2, 38, 0, 0
2, 38, 1, 0
2, 38, 2, 0
2, 38, 3, 0
2, 38, 4, 0
2, 38, 5, 0
2, 38, 6, 0
2, 38, 7, 0
2, 38, 8, 0
2, 38, 9, 0
2, 39, 0, 0
2, 39, 1, 0
2, 39, 2, 0
2, 39, 3, 0
2, 39, 4, 0
2, 39, 5, 0
2, 39, 6, 0
2, 39, 7, 0
2, 39, 8, 0
2, 39, 9, 0
2, 40, 0, 0
2, 40, 1, 0
2, 40, 2, 0
2, 40, 3, 0
2, 40, 4, 0
2, 40, 5, 0
2, 40, 6, 0
2, 40, 7, 0
2, 40, 8, 0
2, 40, 9, 0
2, 41, 0, 0
2, 41, 1, 0
2, 41, 2, 0
2, 41, 3, 0
2, 41, 4, 0
2, 41, 5, 0
2, 41, 6, 0
2, 41, 7, 0
2, 41, 8, 0
2, 41, 9, 0
2, 42, 0, 0
2, 42, 1, 0
2, 42, 2, 0
2, 42, 3, 0
2, 42, 4, 0
2, 42, 5, 0
2, 42, 6, 0
2, 42, 7, 0
2, 42, 8, 0
2, 42, 9, 0
2, 43, 0, 0
2, 43, 1, 0
2, 43, 2, 0
2, 43, 3, 0
2, 43, 4, 0
2, 43, 5, 0
2, 43, 6, 0
2, 43, 7, 0
2, 43, 8, 0
2, 43, 9, 0
2, 44, 0, 0
2, 44, 1, 0
2, 44, 2, 0
2, 44, 3, 0
2, 44, 4, 0
2, 44, 5, 0
2, 44, 6, 0
2, 44, 7, 0
2, 44, 8, 0
2, 44, 9, 0
2, 45, 0, 0
2, 45, 1, 0
2, 45, 2, 6.155311641918215e-12
2, 45, 3, 1.598042808257255e-11
2, 45, 4, 1.514808839743376e-11
2, 45, 5, 1.330261685062862e-11
2, 45, 6, 1.518908935509512e-12
2, 45, 7, 0
2, 45, 8, 0
2, 45, 9, 0
2, 46, 0, 0
2, 46, 1, 0
2, 46, 2, 0
2, 46, 3, 0
2, 46, 4, 0
2, 46, 5, 0
2, 46, 6, 0
2, 46, 7, 0
2, 46, 8, 0
2, 46, 9, 0
2, 47, 0, 0
2, 47, 1, 0
2, 47, 2, 0
2, 47, 3, 0
2, 47, 4, 0
2, 47, 5, 0
2, 47, 6, 0
2, 47, 7, 0
2, 47, 8, 0
2, 47, 9, 0
2, 48, 0, 0
2, 48, 1, 0
2, 48, 2, 0
2, 48, 3, 0
2, 48, 4, 0
2, 48, 5, 0
2, 48, 6, 0
2, 48, 7, 0
2, 48, 8, 0
2, 48, 9, 0
2, 49, 0, 0
2, 49, 1, 0
2, 49, 2, 0
2, 49, 3, 0
2, 49, 4, 0
2, 49, 5, 0
2, 49, 6, 0
2, 49, 7, 0
2, 49, 8, 0
2, 49, 9, 0
2, 50, 0, 0
2, 50, 1, 0
2, 50, 2, 0
2, 50, 3, 0
2, 50, 4, 0
2, 50, 5, 0
2, 50, 6, 0
2, 50, 7, 0
2, 50, 8, 0
2, 50, 9, 0
2, 51, 0, 0
2, 51, 1, 0
2, 51, 2, 0
2, 51, 3, 0
2, 51, 4, 0
2, 51, 5, 0
2, 51, 6, 0
2, 51, 7, 0
2, 51, 8, 0
2, 51, 9, 0
2, 52, 0, 0
2, 52, 1, 0
2, 52, 2, 0
2, 52, 3, 0
2, 52, 4, 0
2, 52, 5, 0
2, 52, 6, 0
2, 52, 7, 0
2, 52, 8, 0
2, 52, 9, 0
2, 53, 0, 2.918108796962037e-11
2, 53, 1, 0
2, 53, 2, 0
2, 53, 3, 0
2, 53, 4, 0
2, 53, 5, 0
2, 53, 6, 0
2, 53, 7, 0
2, 53, 8, 0
2, 53, 9, 0
2, 54, 0, 0
2, 54, 1, 0
2, 54, 2, 0
2, 54, 3, 0
2, 54, 4, 0
2, 54, 5, 0
2, 54, 6, 0
2, 54, 7, 0
2, 54, 8, 0
2, 54, 9, 0
2, 55, 0, 0
2, 55, 1, 0
2, 55, 2, 0
2, 55, 3, 0
2, 55, 4, 0
2, 55, 5, 0
2, 55, 6, 0
2, 55, 7, 0
2, 55, 8, 0
2, 55, 9, 0
2, 56, 0, 0
2, 56, 1, 0
2, 56, 2, 0
2, 56, 3, 0
2, 56, 4, 0
2, 56, 5, 0
2, 56, 6, 0
2, 56, 7, 0
2, 56, 8, 0
2, 56, 9, 0
2, 57, 0, 0
2, 57, 1, 0
2, 57, 2, 0
2, 57, 3, 0
2, 57, 4, 0
2, 57, 5, 0
2, 57, 6, 0
2, 57, 7, 0
2, 57, 8, 0
2, 57, 9, 0
2, 58, 0, 0
2, 58, 1, 0
2, 58, 2, 0
2, 58, 3, 0
2, 58, 4, 0
2, 58, 5, 0
2, 58, 6, 0
2, 58, 7, 0
2, 58, 8, 0
2, 58, 9, 0
2, 59, 0, 0
2, 59, 1, 0
2, 59, 2, 0
2, 59, 3, 0
2, 59, 4, 0
2, 59, 5, 0
2, 59, 6, 0
2, 59, 7, 0
2, 59, 8, 0
2, 59, 9, 0
2, 60, 0, 0
2, 60, 1, 0
2, 60, 2, 0
2, 60, 3, 0
2, 60, 4, 0
2, 60, 5, 0
2, 60, 6, 0
2, 60, 7, 0
2, 60, 8, 0
2, 60, 9, 0
2, 61, 0, 0
2, 61, 1, 0
2, 61, 2, 0
2, 61, 3, 0
2, 61, 4, 0
2, 61, 5, 0
2, 61, 6, 0
2, 61, 7, 0
2, 61, 8, 0
2, 61, 9, 0
2, 62, 0, 0
2, 62, 1, 0
2, 62, 2, 0
2, 62, 3, 0
2, 62, 4, 0
2, 62, 5, 0
2, 62, 6, 0
2, 62, 7, 0
2, 62, 8, 0
2, 62, 9, 0
2, 63, 0, 0
2, 63, 1, 0
2, 63, 2, 0
2, 63, 3, 0
2, 63, 4, 0
2, 63, 5, 0
2, 63, 6, 0
2, 63, 7, 0
2, 63, 8, 0
2, 63, 9, 0
2, 64, 0, 0
2, 64, 1, 0
2, 64, 2, 0
2, 64, 3, 0
2, 64, 4, 0
2, 64, 5, 0
2, 64, 6, 0
2, 64, 7, 0
2, 64, 8, 0
2, 64, 9, 0
2, 65, 0, 0
2, 65, 1, 0
2, 65, 2, 0
2, 65, 3, 0
2, 65, 4, 0
2, 65, 5, 0
2, 65, 6, 0
2, 65, 7, 0
2, 65, 8, 0
2, 65, 9, 0
2, 66, 0, 0
2, 66, 1, 0
2, 66, 2, 0
2, 66, 3, 0
2, 66, 4, 0
2, 66, 5, 0
2, 66, 6, 0
2, 66, 7, 0
2, 66, 8, 0
2, 66, 9, 0
2, 67, 0, 0
2, 67, 1, 0
2, 67, 2, 0
2, 67, 3, 0
2, 67, 4, 0
2, 67, 5, 0
2, 67, 6, 0
2, 67, 7, 0
2, 67, 8, 0
2, 67, 9, 0
2, 68, 0, 0
2, 68, 1, 0
2, 68, 2, 0
2, 68, 3, 0
2, 68, 4, 0
2, 68, 5, 0
2, 68, 6, 0
2, 68, 7, 0
2, 68, 8, 0
2, 68, 9, 0
2, 69, 0, 0
2, 69, 1, 0
2, 69, 2, 0
2, 69, 3, 0
2, 69, 4, 0
2, 69, 5, 0
2, 69, 6, 0
2, 69, 7, 0
2, 69, 8, 0
2, 69, 9, 0
2, 70, 0, 0
2, 70, 1, 0
2, 70, 2, 0
2, 70, 3, 0
2, 70, 4, 0
2, 70, 5, 0
2, 70, 6, 0
2, 70, 7, 0
2, 70, 8, 0
2, 70, 9, 0
2, 71, 0, 0
2, 71, 1, 0
2, 71, 2, 0
2, 71, 3, 0
2, 71, 4, 0
2, 71, 5, 0
2, 71, 6, 0
2, 71, 7, 0
2, 71, 8, 0
2, 71, 9, 0
2, 72, 0, 0
2, 72, 1, 0
2, 72, 2, 0
2, 72, 3, 0
2, 72, 4, 0
2, 72, 5, 0
2, 72, 6, 0
2, 72, 7, 0
2, 72, 8, 0
2, 72, 9, 0
2, 73, 0, 0
2, 73, 1, 0
2, 73, 2, 0
2, 73, 3, 0
2, 73, 4, 0
2, 73, 5, 0
2, 73, 6, 0
2, 73, 7, 0
2, 73, 8, 0
2, 73, 9, 0
2, 74, 0, 0
2, 74, 1, 0
2, 74, 2, 0
2, 74, 3, 0
2, 74, 4, 0
2, 74, 5, 0
2, 74, 6, 0
2, 74, 7, 0
2, 74, 8, 0
2, 74, 9, 0
2, 75, 0, 0
2, 75, 1, 0
2, 75, 2, 0
2, 75, 3, 0
2, 75, 4, 0
2, 75, 5, 0
2, 75, 6, 0
2, 75, 7, 0
2, 75, 8, 0
2, 75, 9, 0
2, 76, 0, 0
2, 76, 1, 0
2, 76, 2, 0
2, 76, 3, 0
2, 76, 4, 0
2, 76, 5, 0
2, 76, 6, 0
2, 76, 7, 0
2, 76, 8, 0
2, 76, 9, 0
2, 77, 0, 0
2, 77, 1, 0
2, 77, 2, 0
2, 77, 3, 0
2, 77, 4, 0
2, 77, 5, 0
2, 77, 6, 0
2, 77, 7, 0
2, 77, 8, 0
2, 77, 9, 0
2, 78, 0, 0
2, 78, 1, 0
2, 78, 2, 0
2, 78, 3, 0
2, 78, 4, 0
2, 78, 5, 0
2, 78, 6, 0
2, 78, 7, 0
2, 78, 8, 0
2, 78, 9, 0
2, 79, 0, 0
2, 79, 1, 0
2, 79, 2, 0
2, 79, 3, 0
2, 79, 4, 0
2, 79, 5, 0
2, 79, 6, 0
2, 79, 7, 0
2, 79, 8, 0
2, 79, 9, 0
3, 0, 0, 0
3, 0, 1, 0
3, 0, 2, 0
3, 0, 3, 0
3, 0, 4, 0
3, 0, 5, 0
3, 0, 6, 0
3, 0, 7, 0
3, 0, 8, 0
3, 0, 9, 0
3, 1, 0, 0
3, 1, 1, 0
3, 1, 2, 0
3, 1, 3, 0
3, 1, 4, 0
3, 1, 5, 0
3, 1, 6, 0
3, 1, 7, 0
3, 1, 8, 0
3, 1, 9, 0
3, 2, 0, 0
3, 2, 1, 0
3, 2, 2, 0
3, 2, 3, 0
3, 2, 4, 0
3, 2, 5, 0
3, 2, 6, 0
3, 2, 7, 0
3, 2, 8, 0
3, 2, 9, 0
3, 3, 0, 0
3, 3, 1, 0
3, 3, 2, 0
3, 3, 3, 0
3, 3, 4, 0
3, 3, 5, 0
3, 3, 6, 0
3, 3, 7, 0
3, 3, 8, 0
3, 3, 9, 0
3, 4, 0, 0
3, 4, 1, 0
3, 4, 2, 0
3, 4, 3, 0
3, 4, 4, 0
3, 4, 5, 0
3, 4, 6, 0
3, 4, 7, 0
3, 4, 8, 0
3, 4, 9, 0
3, 5, 0, 0
3, 5, 1, 0
3, 5, 2, 0
3, 5, 3, 0
3, 5, 4, 0
3, 5, 5, 0
3, 5, 6, 0
3, 5, 7, 0
3, 5, 8, 0
3, 5, 9, 0
3, 6, 0, 0
3, 6, 1, 0
3, 6, 2, 0
3, 6, 3, 0
3, 6, 4, 0
3, 6, 5, 0
3, 6, 6, 0
3, 6, 7, 0
3, 6, 8, 0
3, 6, 9, 0
3, 7, 0, 0
3, 7, 1, 0
3, 7, 2, 0
3, 7, 3, 0
3, 7, 4, 0
3, 7, 5, 0
3, 7, 6, 0
3, 7, 7, 0
